#  x                 y             frequency           rot. str.
0.0      -0.0304939758133      57.25      -15.28
0.500062507813      -0.0333260953421      115.28      1.12
1.00012501563      -0.0362652580605      155.86      197.36
1.50018752344      -0.0393157167584      211.80      -48.95
2.00025003125      -0.0424819191896      237.97      -167.03
2.50031253907      -0.045768518482      316.30      8.48
3.00037504688      -0.0491803841888      368.36      -23.81
3.50043755469      -0.0527226140253      437.79      -21.72
4.00050006251      -0.0564005463406      479.58      37.51
4.50056257032      -0.0602197733754      510.83      -7.35
5.00062507813      -0.0641861553633      626.81      -9.37
5.50068758595      -0.068305835536      722.75      10.49
6.00075009376      -0.072585256098      801.18      4.25
6.50081260158      -0.0770311752431      867.20      17.55
7.00087510939      -0.0816506852889      933.42      2.06
7.5009376172      -0.0864512320132      1047.63      6.39
8.00100012502      -0.0914406352831      1063.09      3.18
8.50106263283      -0.0966271110747      1129.73      52.85
9.00112514064      -0.10201929499      1171.52      9.00
9.50118764846      -0.107626267387      1202.11      -32.79
10.0012501563      -0.113457580248      1255.68      -36.49
10.5013126641      -0.119523285924      1287.06      -182.96
11.0013751719      -0.125833967902      1296.87      149.09
11.5014376797      -0.132400773761      1353.63      -53.22
12.0015001875      -0.139235450487      1399.11      36.60
12.5015626953      -0.146350382342      1450.30      -18.86
13.0016252032      -0.153758631503      1498.85      5.67
13.501687711      -0.161473981688      1623.44      61.06
14.0017502188      -0.169510985029      1847.18      -14.21
14.5018127266      -0.177885012461      2908.45      -8.54
15.0018752344      -0.186612307926      2963.51      -30.40
15.5019377422      -0.195710046721      3054.07      0.31
16.00200025      -0.205196398351      3521.98      -9.38
16.5020627578      -0.215090594274      3613.38      3.06
17.0021252657      -0.225413000976      3766.75      -15.30
17.5021877735      -0.236185198844      3825.08      8.17
18.0022502813       -0.247430067368
18.5023127891       -0.25917187723
19.0023752969       -0.271436389925
19.5024378047       -0.284250965595
20.0025003125       -0.29764467985
20.5025628204       -0.311648450421
21.0026253282       -0.326295174558
21.502687836       -0.34161987823
22.0027503438       -0.35765987824
22.5028128516       -0.374454958515
23.0028753594       -0.392047561975
23.5029378672       -0.410482999506
24.003000375       -0.429809677752
24.5030628829       -0.450079347614
25.0031253907       -0.471347375559
25.5031878985       -0.493673040063
26.0032504063       -0.517119855783
26.5033129141       -0.541755928319
27.0033754219       -0.567654342779
27.5034379297       -0.594893589673
28.0035004376       -0.6235580321
28.5035629454       -0.65373841861
29.0036254532       -0.685532446609
29.503687961       -0.719045381737
30.0037504688       -0.75439073923
30.5038129766       -0.791691033957
31.0038754844       -0.831078606523
31.5039379922       -0.872696533672
32.0040005001       -0.916699632042
32.5040630079       -0.963255565299
33.0041255157       -1.01254606566
33.5041880235       -1.06476828188
34.0042505313       -1.12013626693
34.5043130391       -1.17888261961
35.0043755469       -1.24126029562
35.5044380548       -1.30754460442
36.0045005626       -1.37803540942
36.5045630704       -1.4530595493
37.0046255782       -1.53297349881
37.504688086       -1.61816628676
38.0047505938       -1.70906268779
38.5048131016       -1.80612670163
39.0048756095       -1.90986532921
39.5049381173       -2.020832648
40.0050006251       -2.139634178
40.5050631329       -2.26693151471
41.0051256407       -2.40344718307
41.5051881485       -2.5499696358
42.0052506563       -2.7073582769
42.5053131641       -2.8765483331
43.005375672       -3.05855531789
43.5054381798       -3.25447872774
44.0055006876       -3.46550447187
44.5055631954       -3.69290535521
45.0056257032       -3.93803869903
45.505688211       -4.20233988401
46.0057507188       -4.48731022368
46.5058132267       -4.79449711432
47.0058757345       -5.1254638562
47.5059382423       -5.48174591122
48.0060007501       -5.86478968533
48.5060632579       -6.27586927255
49.0061257657       -6.71597610164
49.5061882735       -7.18567630596
50.0062507813       -7.68493122874
50.5063132892       -8.2128782594
51.006375797       -8.767572795
51.5064383048       -9.34569824051
52.0065008126       -9.94226023315
52.5065633204       -10.5502939259
53.0066258282       -11.1606285005
53.506688336       -11.7617688258
54.0067508439       -12.3399658978
54.5068133517       -12.8795487441
55.0068758595       -13.3635731881
55.5069383673       -13.7748014238
56.0070008751       -14.0969612012
56.5070633829       -14.3161553566
57.0071258907       -14.4222233393
57.5071883985       -14.4098237009
58.0072509064       -14.2790314462
58.5073134142       -14.0353290508
59.007375922       -13.6889930066
59.5074384298       -13.2540002024
60.0075009376       -12.7466618387
60.5075634454       -12.1842157063
61.0076259532       -11.5835735762
61.5076884611       -10.9603507326
62.0077509689       -10.3282267235
62.5078134767       -9.69862183818
63.0078759845       -9.08063310594
63.5079384923       -8.48115694061
64.0080010001       -7.90512702028
64.5080635079       -7.3558079066
65.0081260158       -6.83510069369
65.5081885236       -6.34383225756
66.0082510314       -5.88201223336
66.5083135392       -5.44905102343
67.008376047       -5.04393817676
67.5084385548       -4.66538401704
68.0085010626       -4.31192913812
68.5085635704       -3.98202695069
69.0086260783       -3.67410432893
69.5086885861       -3.38660490297
70.0087510939       -3.11801888922
70.5088136017       -2.86690267475
71.0088761095       -2.63189074359
71.5089386173       -2.41170198461
72.0090011251       -2.20514196084
72.509063633       -2.01110234612
73.0091261408       -1.82855843669
73.5091886486       -1.65656541225
74.0092511564       -1.49425384076
74.5093136642       -1.34082478359
75.009376172       -1.1955447539
75.5094386798       -1.0577407036
76.0095011876       -0.926795156415
76.5095636955       -0.802141562724
77.0096262033       -0.683259921301
77.5096887111       -0.56967269106
78.0097512189       -0.46094100085
78.5098137267       -0.356661154656
79.0098762345       -0.256461422631
79.5099387423       -0.159999103919
80.0100012502       -0.0669578446084
80.510063758       0.0229548071254
81.0101262658       0.110009627043
81.5101887736       0.194457740166
82.0102512814       0.276532462894
82.5103137892       0.356450978553
83.010376297       0.434415861947
83.5104388049       0.510616467435
84.0105013127       0.58523019393
84.5105638205       0.658423639122
85.0106263283       0.730353654222
85.5106888361       0.801168309523
86.0107513439       0.871007780196
86.5108138517       0.940005160875
87.0108763595       1.00828721687
87.5109388674       1.07597507913
88.0110013752       1.14318488951
88.511063883       1.21002840226
89.0111263908       1.27661354733
89.5111888986       1.34304496048
90.0112514064       1.40942448491
90.5113139142       1.47585164889
91.0113764221       1.54242412335
91.5114389299       1.60923816348
92.0115014377       1.67638903783
92.5115639455       1.74397144861
93.0116264533       1.81207994649
93.5116889611       1.88080934315
94.0117514689       1.95025512474
94.5118139767       2.02051386933
95.0118764846       2.09168367128
95.5119389924       2.16386457527
96.0120015002       2.23715902264
96.512064008       2.31167231228
97.0121265158       2.38751307807
97.5121890236       2.46479378411
98.0122515314       2.54363123829
98.5123140393       2.62414712358
99.0123765471       2.7064685447
99.5124390549       2.79072858567
100.012501563       2.87706687063
100.512564071       2.96563011603
101.012626578       3.05657265674
101.512689086       3.15005692107
102.012751594       3.24625381935
102.512814102       3.34534299817
103.01287661       3.44751289474
103.512939117       3.55296050448
104.013001625       3.66189074775
104.513064133       3.77451528751
105.013126641       3.89105061055
105.513189149       4.0117151381
106.013251656       4.13672508289
106.513314164       4.26628872147
107.013376672       4.40059871349
107.51343918       4.53982208932
108.013501688       4.68408756787
108.513564196       4.83346999213
109.013626703       4.98797192701
109.513689211       5.14750290306
110.013751719       5.31185745813
110.513814227       5.48069404586
111.013876735       5.65351799733
111.513939242       5.82967288136
112.01400175       6.00834549071
112.514064258       6.18858980686
113.014126766       6.36937410086
113.514189274       6.54965237569
114.014251781       6.72845664822
114.514314289       6.90500086114
115.014376797       7.07878207879
115.514439305       7.24966206308
116.014501813       7.41791394489
116.514564321       7.58422475197
117.014626828       7.74965350427
117.514689336       7.91555363193
118.014751844       8.08347476115
118.514814352       8.25506081928
119.01487686       8.43195907637
119.514939367       8.61574970639
120.015001875       8.80789972623
120.515064383       9.00974037137
121.015126891       9.22246389972
121.515189399       9.44713452222
122.015251906       9.68470821979
122.515314414       9.93605705819
123.015376922       10.2019947674
123.51543943       10.4833014806
124.015501938       10.7807464634
124.515564446       11.0951083476
125.015626953       11.4271928445
125.515689461       11.7778481784
126.015751969       12.1479786215
126.515814477       12.5385565582
127.015876985       12.9506335071
127.515939492       13.3853504964
128.016002       13.8439481497
128.516064508       14.3277767951
129.016127016       14.8383068756
129.516189524       15.3771399043
130.016252032       15.9460201859
130.516314539       16.5468475096
131.016377047       17.1816910072
131.516439555       17.8528043657
132.016502063       18.5626425861
132.516564571       19.3138804803
133.016627078       20.1094331091
133.516689586       20.9524783694
134.016752094       21.8464819501
134.516814602       22.7952248851
135.01687711       23.8028339362
135.516939617       24.8738150455
136.017002125       26.0130900866
136.517064633       27.2260371351
137.017127141       28.5185344413
137.517189649       29.8970082417
138.017252157       31.368484455
138.517314664       32.9406441869
139.017377172       34.6218827777
139.51743968       36.4213718623
140.017502188       38.3491235405
140.517564696       40.4160552368
141.017627203       42.6340531261
141.517689711       45.0160310441
142.017752219       47.575980527
142.517814727       50.3290059238
143.017877235       53.2913363021
143.517939742       56.4803029774
144.01800225       59.9142677963
144.518064758       63.6124826468
145.018127266       67.5948549193
145.518189774       71.8815867497
146.018252282       76.4926479161
146.518314789       81.4470335837
147.018377297       86.7617495124
147.518439805       92.4504603609
148.018502313       98.5217339306
148.518564821       104.97681961
149.018627328       111.806918734
149.518689836       118.989945757
150.018752344       126.486851123
150.518814852       134.237688032
151.01887736       142.157760372
151.518939867       150.134381971
152.019002375       158.02498316
152.519064883       165.657468158
153.019127391       172.833774999
153.519189899       179.337419997
154.019252407       184.945337431
154.519314914       189.443537136
155.019377422       192.645108826
155.51943993       194.408159633
156.019502438       194.650730822
156.519564946       193.359904321
157.019627453       190.593267792
157.519689961       186.472435152
158.019752469       181.169945358
158.519814977       174.892068673
159.019877485       167.860507055
159.519939992       160.295663005
160.0200025       152.403312625
160.520065008       144.36550678
161.020127516       136.335641039
161.520190024       128.437045347
162.020252532       120.764172782
162.520315039       113.385447671
163.020377547       106.346968312
163.520440055       99.6764590907
164.020502563       93.3870684332
164.520565071       87.4807792852
165.020627578       81.9513258527
165.520690086       76.7865956806
166.020752594       71.9705474083
166.520815102       67.4847008838
167.02087761       63.3092660444
167.520940118       59.4239765959
168.021002625       55.8086886986
168.521065133       52.4437966416
169.021127641       49.3105087208
169.521190149       46.3910182593
170.021252657       43.6685974071
170.521315164       41.1276351965
171.021377672       38.7536362881
171.52144018       36.5331928135
172.021502688       34.4539385547
172.521565196       32.5044922497
173.021627703       30.6743949405
173.521690211       28.9540448603
174.021752719       27.3346322939
174.521815227       25.80807606
175.021877735       24.3669626799
175.521940243       23.0044888814
176.02200275       21.7144077828
176.522065258       20.4909788898
177.022127766       19.3289218915
177.522190274       18.2233741429
178.022252782       17.1698516576
178.522315289       16.1642133974
179.022377797       15.2026286228
179.522440305       14.2815470654
180.022502813       13.3976716774
180.522565321       12.5479337271
181.022627828       11.7294700148
181.522690336       10.9396019965
182.022752844       10.1758166177
182.522815352       9.43574867053
183.02287786       8.71716450188
183.522940368       8.01794691215
184.023002875       7.33608109493
184.523065383       6.6696414793
185.023127891       6.0167793448
185.523190399       5.37571108752
186.023252907       4.7447070229
186.523315414       4.12208061628
187.023377922       3.50617803755
187.52344043       2.8953679397
188.023502938       2.28803136431
188.523565446       1.6825516791
189.023627953       1.07730445419
189.523690461       0.470647184715
190.023752969       -0.139091231699
190.523815477       -0.753621353489
191.023877985       -1.37470447925
191.523940493       -2.00416444497
192.024003       -2.64390001811
192.524065508       -3.29589796603
193.024128016       -3.962246866
193.524190524       -4.64515170828
194.024253032       -5.34694932012
194.524315539       -6.07012460389
195.024378047       -6.8173275329
195.524440555       -7.59139077846
196.024503063       -8.39534774401
196.524565571       -9.23245064814
197.024628079       -10.1061881151
197.524690586       -11.0203014847
198.024753094       -11.978798724
198.524815602       -12.9859643859
199.02487811       -14.0463634871
199.524940618       -15.1648364381
200.025003125       -16.3464812089
200.525065633       -17.596617726
201.025128141       -18.9207280309
201.525190649       -20.3243639881
202.025253157       -21.8130123191
202.525315664       -23.3919045841
203.025378172       -25.0657576265
203.52544068       -26.838428363
204.025503188       -28.7124663174
204.525565696       -30.6885490115
205.025628204       -32.7647907575
205.525690711       -34.9359265011
206.025753219       -37.1923914138
206.525815727       -39.519345977
207.025878235       -41.8957361838
207.525940743       -44.293527238
208.02600325       -46.677299827
208.526065758       -49.0044369291
209.026128266       -51.2261352941
209.526190774       -53.289424604
210.026253282       -55.1402495631
210.526315789       -56.7274654969
211.026378297       -58.0073488001
211.526440805       -58.9479980078
212.026503313       -59.5328870282
212.526565821       -59.762899633
213.026628329       -59.6564357872
213.526690836       -59.2475703672
214.026753344       -58.5826410871
214.526815852       -57.7159199939
215.02687836       -56.7051093526
215.526940868       -55.6073032484
216.027003375       -54.4758373532
216.527065883       -53.3581988922
217.027128391       -52.2949580274
217.527190899       -51.319546461
218.027253407       -50.4586513608
218.527315914       -49.7329945273
219.027378422       -49.1583034902
219.52744093       -48.7463314714
220.027503438       -48.5058324035
220.527565946       -48.4434379552
221.027628454       -48.5644134277
221.527690961       -48.8732890785
222.027753469       -49.3743748922
222.527815977       -50.0721722772
223.027878485       -50.9716975985
223.527940993       -52.0787313658
224.0280035       -53.4000043113
224.528066008       -54.943328156
225.028128516       -56.7176749072
225.528191024       -58.7332041802
226.028253532       -61.0012332801
226.52831604       -63.5341395187
227.028378547       -66.3451783514
227.528441055       -69.4481943115
228.028503563       -72.8571943863
228.528566071       -76.5857456345
229.028628579       -80.6461510346
229.528691086       -85.0483509014
230.028753594       -89.7984936531
230.528816102       -94.8971223845
231.02887861       -100.336937183
231.528941118       -106.100123629
232.029003625       -112.15529294
232.529066133       -118.454166273
233.029128641       -124.928259544
233.529191149       -131.485983014
234.029253657       -138.010744578
234.529316165       -144.360798632
235.029378672       -150.371649775
235.52944118       -155.861720421
236.029503688       -160.641646986
236.529566196       -164.526952399
237.029628704       -167.353022706
237.529691211       -168.990486846
238.029753719       -169.358549523
238.529816227       -168.433833781
239.029878735       -166.252973315
239.529941243       -162.908418722
240.03000375       -158.538318287
240.530066258       -153.312455329
241.030128766       -147.416747872
241.530191274       -141.038671058
242.030253782       -134.355318888
242.53031629       -127.524971373
243.030378797       -120.682248727
243.530441305       -113.936380584
244.030503813       -107.371837398
244.530566321       -101.050518789
245.030628829       -95.0147884689
245.530691336       -89.2908083927
246.030753844       -83.8917980648
246.530816352       -78.8209956096
247.03087886       -74.0742121777
247.530941368       -69.6419501139
248.031003875       -65.5111038335
248.531066383       -61.6662882533
249.031128891       -58.0908501669
249.531191399       -54.7676189826
250.031253907       -51.6794489861
250.531316415       -48.8095985818
251.031378922       -46.141984552
251.53144143       -43.6613422398
252.031503938       -41.3533162006
252.531566446       -39.2045004605
253.031628954       -37.2024430671
253.531691461       -35.3356260504
254.031753969       -33.5934290946
254.531816477       -31.9660830381
255.031878985       -30.4446176458
255.531941493       -29.0208068247
256.032004001       -27.6871135047
256.532066508       -26.4366356953
257.032129016       -25.2630547093
257.532191524       -24.1605861638
258.032254032       -23.1239340979
258.53231654       -22.1482483518
259.032379047       -21.2290852203
259.532441555       -20.3623713021
260.032504063       -19.5443704078
260.532566571       -18.7716533555
261.032629079       -18.0410704623
261.532691586       -17.3497265324
262.032754094       -16.6949581442
262.532816602       -16.0743130422
263.03287911       -15.48553145
263.532941618       -14.9265291313
264.033004126       -14.395382037
264.533066633       -13.8903123899
265.033129141       -13.4096760702
265.533191649       -12.9519511763
266.033254157       -12.5157276481
266.533316665       -12.0996978488
267.033379172       -11.702648013
267.53344168       -11.323450475
268.033504188       -10.9610566032
268.533566696       -10.6144903704
269.033629204       -10.2828424992
269.533691711       -9.96526512677
270.033754219       -9.66096693773
270.533816727       -9.36920872238
271.033879235       -9.08929931751
271.533941743       -8.82059189464
272.034004251       -8.56248056224
272.534066758       -8.31439725263
273.034129266       -8.07580886661
273.534191774       -7.84621465206
274.034254282       -7.62514379444
274.53431679       -7.4121531999
275.034379297       -7.20682545304
275.534441805       -7.00876693335
276.034504313       -6.81760607579
