#  x                 y             frequency           rot. str.
0.0      0.123055532324      62.78      6.00
0.500062507813      0.124822750083      118.71      7.37
1.00012501563      0.126629519534      191.08      -6.26
1.50018752344      0.128477053733      237.17      13.05
2.00025003125      0.130366613097      290.30      -14.36
2.50031253907      0.132299507644      342.41      -8.62
3.00037504688      0.134277099365      406.01      -1.85
3.50043755469      0.136300804726      488.96      -9.47
4.00050006251      0.13837209731      529.22      4.96
4.50056257032      0.14049251061      565.09      44.41
5.00062507813      0.142663640987      668.73      43.17
5.50068758595      0.14488715079      724.86      -56.38
6.00075009376      0.147164771669      854.65      19.03
6.50081260158      0.149498308075      892.82      -11.29
7.00087510939      0.15188964097      944.90      39.32
7.5009376172      0.154340731759      1020.18      3.62
8.00100012502      0.156853626458      1086.60      3.75
8.50106263283      0.159430460116      1125.74      26.60
9.00112514064      0.162073461512      1159.96      -14.12
9.50118764846      0.164784958132      1186.26      -71.22
10.0012501563      0.167567381466      1254.16      69.15
10.5013126641      0.170423272635      1291.33      -35.90
11.0013751719      0.17335528837      1305.95      -80.36
11.5014376797      0.176366207384      1373.59      -14.68
12.0015001875      0.179458937138      1425.69      1.74
12.5015626953      0.182636521068      1436.42      -14.53
13.0016252032      0.185902146266      1510.16      0.62
13.501687711      0.189259151684      1670.32      22.62
14.0017502188      0.192711036879      1839.91      6.47
14.5018127266      0.196261471346      2976.68      -11.94
15.0018752344      0.199914304493      3037.43      -9.58
15.5019377422      0.203673576291      3074.04      10.69
16.00200025      0.207543528664      3483.02      -7.94
16.5020627578      0.211528617682      3564.53      15.13
17.0021252657      0.215633526602      3686.97      -14.27
17.5021877735      0.21986317984      3768.73      -3.20
18.0022502813       0.224222757957
18.5023127891       0.228717713714
19.0023752969       0.233353789311
19.5024378047       0.238137034903
20.0025003125       0.243073828485
20.5025628204       0.248170897286
21.0026253282       0.253435340776
21.502687836       0.25887465545
22.0027503438       0.264496761525
22.5028128516       0.270310031724
23.0028753594       0.276323322339
23.5029378672       0.282546006771
24.003000375       0.288988011761
24.5030628829       0.295659856582
25.0031253907       0.302572695444
25.5031878985       0.309738363411
26.0032504063       0.317169426177
26.5033129141       0.324879234044
27.0033754219       0.332881980512
27.5034379297       0.341192765936
28.0035004376       0.349827666718
28.5035629454       0.358803810598
29.0036254532       0.368139458632
29.503687961       0.377854094534
30.0037504688       0.387968522114
30.5038129766       0.398504971628
31.0038754844       0.409487215964
31.5039379922       0.420940697659
32.0040005001       0.432892667877
32.5040630079       0.445372338594
33.0041255157       0.458411049371
33.5041880235       0.472042450269
34.0042505313       0.486302702592
34.5043130391       0.501230699395
35.0043755469       0.516868307847
35.5044380548       0.533260635806
36.0045005626       0.550456325223
36.5045630704       0.568507875254
37.0046255782       0.587471998292
37.504688086       0.60741001247
38.0047505938       0.628388274526
38.5048131016       0.650478657353
39.0048756095       0.673759076943
39.5049381173       0.698314073884
40.0050006251       0.724235455001
40.5050631329       0.751623001185
41.0051256407       0.780585247838
41.5051881485       0.811240344752
42.0052506563       0.843717002464
42.5053131641       0.878155532242
43.005375672       0.914708986718
43.5054381798       0.953544407678
44.0055006876       0.994844186523
44.5055631954       1.0388075412
45.0056257032       1.08565211067
45.505688211       1.13561566397
46.0057507188       1.1889579148
46.5058132267       1.24596242441
47.0058757345       1.30693856335
47.5059382423       1.3722234864
48.0060007501       1.44218405283
48.5060632579       1.5172185935
49.0061257657       1.59775838627
49.5061882735       1.68426864741
50.0062507813       1.77724877659
50.5063132892       1.87723150206
51.006375797       1.98478045653
51.5064383048       2.10048556814
52.0065008126       2.22495547155
52.5065633204       2.35880593003
53.0066258282       2.5026430132
53.506688336       2.65703951034
54.0067508439       2.82250280123
54.5068133517       2.99943220662
55.0068758595       3.1880637808
55.5069383673       3.38840072071
56.0070008751       3.60012823214
56.5070633829       3.82251305735
57.0071258907       4.05429020611
57.5071883985       4.29354299506
58.0072509064       4.53758739288
58.5073134142       4.78287764578
59.007375922       5.02495637053
59.5074384298       5.25847706096
60.0075009376       5.47732769511
60.5075634454       5.67487783922
61.0076259532       5.84435595689
61.5076884611       5.97933852111
62.0077509689       6.0743019708
62.5078134767       6.12516092611
63.0078759845       6.1297021252
63.5079384923       6.08783189228
64.0080010001       6.0015870553
64.5080635079       5.87490705458
65.0081260158       5.71321353469
65.5081885236       5.52287767281
66.0082510314       5.31066602611
66.5083135392       5.08324342928
67.008376047       4.84678461825
67.5084385548       4.60671556362
68.0085010626       4.367579677
68.5085635704       4.13300748201
69.0086260783       3.90576129311
69.5086885861       3.68782668518
70.0087510939       3.48052705452
70.5088136017       3.28464373735
71.0088761095       3.10053019535
71.5089386173       2.92821378287
72.0090011251       2.76748229085
72.509063633       2.61795489957
73.0091261408       2.47913861066
73.5091886486       2.35047194699
74.0092511564       2.23135795212
74.5093136642       2.12118848012
75.009376172       2.01936157462
75.5094386798       1.92529348134
76.0095011876       1.83842657224
76.5095636955       1.7582342113
77.0096262033       1.68422337478
77.5096887111       1.61593565596
78.0097512189       1.55294713604
78.5098137267       1.49486748375
79.0098762345       1.44133855369
79.5099387423       1.39203268116
80.0100012502       1.34665081696
80.510063758       1.30492060347
81.0101262658       1.26659446301
81.5101887736       1.23144774612
82.0102512814       1.19927697071
82.5103137892       1.16989817087
83.010376297       1.14314536538
83.5104388049       1.11886915007
84.0105013127       1.09693541357
84.5105638205       1.07722417383
85.0106263283       1.05962853063
85.5106888361       1.04405372841
86.0107513439       1.03041632343
86.5108138517       1.01864344925
87.0108763595       1.00867217426
87.5109388674       1.0004489461
88.0110013752       0.993929117611
88.511063883       0.98907654985
89.0111263908       0.985863288399
89.5111888986       0.984269309536
90.0112514064       0.984282333736
90.5113139142       0.985897704516
91.0113764221       0.989118331325
91.5114389299       0.993954695831
92.0115014377       1.00042492163
92.5115639455       1.00855490809
93.0116264533       1.01837852961
93.5116889611       1.02993790252
94.0117514689       1.04328372211
94.5118139767       1.05847567349
95.0118764846       1.07558292019
95.5119389924       1.09468467563
96.0120015002       1.11587086267
96.512064008       1.13924286786
97.0121265158       1.16491439688
97.5121890236       1.19301243889
98.0122515314       1.22367834726
98.5123140393       1.2570690449
99.0123765471       1.29335836184
99.5124390549       1.33273851223
100.012501563       1.37542171677
100.512564071       1.42164197423
101.012626578       1.47165698213
101.512689086       1.52575020163
102.012751594       1.58423305385
102.512814102       1.64744722377
103.01287661       1.7157670329
103.512939117       1.78960182051
104.013001625       1.86939824454
104.513064133       1.95564237456
105.013126641       2.04886139716
105.513189149       2.14962468559
106.013251656       2.2585438958
106.513314164       2.37627163466
107.013376672       2.50349809851
107.51343918       2.64094489449
108.013501688       2.78935503046
108.513564196       2.94947778927
109.013626703       3.12204689649
109.513689211       3.30775006362
110.013751719       3.50718767828
110.513814227       3.72081818592
111.013876735       3.9488876739
111.513939242       4.19134149816
112.01400175       4.44771672232
112.514064258       4.71701597569
113.014126766       4.99756642201
113.514189274       5.28687215789
114.014251781       5.58147460922
114.514314289       5.87684297078
115.014376797       6.16732425472
115.514439305       6.44618782719
116.014501813       6.70579913425
116.514564321       6.93794795744
117.014626828       7.13433538548
117.514689336       7.28719135497
118.014751844       7.38995684428
118.514814352       7.43793258599
119.01487686       7.42878270964
119.514939367       7.36279664212
120.015001875       7.2428559322
120.515064383       7.07411286338
121.015126891       6.86344570541
121.515189399       6.61879316504
122.015251906       6.34847888158
122.515314414       6.06061819111
123.015376922       5.76266481684
123.51543943       5.46111778585
124.015501938       5.16137869751
124.515564446       4.86773099666
125.015626953       4.58340585008
125.515689461       4.31070056942
126.015751969       4.051121572
126.515814477       3.80553153388
127.015876985       3.57428766685
127.515939492       3.35736395657
128.016002       3.15445447037
128.516064508       2.96505762605
129.016127016       2.78854292179
129.516189524       2.62420240109
130.016252032       2.4712893586
130.516314539       2.32904670432
131.016377047       2.19672715062
131.516439555       2.07360706819
132.016502063       1.95899553157
132.516564571       1.8522397758
133.016627078       1.75272802484
133.516689586       1.65989043478
134.016752094       1.57319871842
134.516814602       1.49216487686
135.01687711       1.4163393543
135.516939617       1.34530884708
136.017002125       1.27869393383
136.517064633       1.21614664443
137.017127141       1.15734804948
137.517189649       1.10200592461
138.017252157       1.04985252467
138.517314664       1.0006424883
139.017377172       0.954150883211
139.51743968       0.910171395641
140.017502188       0.868514662101
140.517564696       0.829006738772
141.017627203       0.791487701529
141.517689711       0.755810368533
142.017752219       0.721839136712
142.517814727       0.68944892331
143.017877235       0.658524203801
143.517939742       0.628958137806
144.01800225       0.60065177506
144.518064758       0.57351333401
145.018127266       0.54745754613
145.518189774       0.522405059605
146.018252282       0.498281896534
146.518314789       0.475018958313
147.018377297       0.452551574363
147.518439805       0.43081908975
148.018502313       0.409764487702
148.518564821       0.389334043372
149.018627328       0.369477005543
149.518689836       0.350145303258
150.018752344       0.331293274664
150.518814852       0.312877415556
151.01887736       0.294856145374
151.518939867       0.27718958856
152.019002375       0.259839369362
152.519064883       0.242768418339
153.019127391       0.225940788906
153.519189899       0.20932148242
154.019252407       0.192876280348
154.519314914       0.176571582185
155.019377422       0.160374247797
155.51943993       0.14425144297
156.019502438       0.128170486922
156.519564946       0.112098700607
157.019627453       0.096003254595
157.519689961       0.0798510153532
158.019752469       0.0636083887067
158.519814977       0.0472411592255
159.019877485       0.0307143242487
159.519939992       0.0139919211888
160.0200025       -0.00296315331542
160.520065008       -0.0201893339212
161.020127516       -0.0377265884113
161.520190024       -0.0556166325894
162.020252532       -0.0739031601485
162.520315039       -0.0926320895832
163.020377547       -0.111851830413
163.520440055       -0.131613571189
164.020502563       -0.151971592009
164.520565071       -0.17298360452
165.020627578       -0.194711122691
165.520690086       -0.21721986797
166.020752594       -0.240580212781
166.520815102       -0.264867666715
167.02087761       -0.290163410178
167.520940118       -0.316554880688
168.021002625       -0.34413641748
168.521065133       -0.3730099705
169.021127641       -0.403285880367
169.521190149       -0.435083736211
170.021252657       -0.468533318688
170.521315164       -0.503775635634
171.021377672       -0.540964057832
171.52144018       -0.580265562072
172.021502688       -0.621862087959
172.521565196       -0.665952013579
173.021627703       -0.712751752928
173.521690211       -0.762497474624
174.021752719       -0.815446936378
174.521815227       -0.871881422471
175.021877735       -0.932107761214
175.521940243       -0.996460385121
176.02200275       -1.06530337694
176.522065258       -1.13903241809
177.022127766       -1.21807652019
177.522190274       -1.30289937274
178.022252782       -1.39400007719
178.522315289       -1.49191295526
179.022377797       -1.59720601433
179.522440305       -1.71047751789
180.022502813       -1.8323499426
180.522565321       -1.96346040034
181.022627828       -2.10444636481
181.522690336       -2.255925275
182.022752844       -2.41846630988
182.522815352       -2.59255237747
183.02287786       -2.77853020318
183.522940368       -2.97654644255
184.023002875       -3.18646814212
184.523065383       -3.4077868478
185.023127891       -3.63950748597
185.523190399       -3.88002610679
186.023252907       -4.12700489836
186.523315414       -4.3772585355
187.023377922       -4.62667242477
187.52344043       -4.87017950681
188.023502938       -5.1018258037
188.523565446       -5.31495288341
189.023627953       -5.50251481848
189.523690461       -5.65752639128
190.023752969       -5.7736098527
190.523815477       -5.84557568235
191.023877985       -5.86994876475
191.523940493       -5.84534611937
192.024003       -5.77263213269
192.524065508       -5.65481940102
193.024128016       -5.49673563856
193.524190524       -5.30452288252
194.024253032       -5.08506065941
194.524315539       -4.84540485168
195.024378047       -4.59231330315
195.524440555       -4.33189811095
196.024503063       -4.0694138542
196.524565571       -3.80916795849
197.024628079       -3.55452656161
197.524690586       -3.30798554784
198.024753094       -3.07127897789
198.524815602       -2.84550288646
199.02487811       -2.63123896748
199.524940618       -2.42866857659
200.025003125       -2.23767211349
200.525065633       -2.05791210175
201.025128141       -1.8889003402
201.525190649       -1.73005064179
202.025253157       -1.58071918194
202.525315664       -1.44023458368
203.025378172       -1.30791974163
203.52544068       -1.18310714972
204.025503188       -1.0651492212
204.525565696       -0.953424817765
205.025628204       -0.847342957936
205.525690711       -0.746344463844
206.025753219       -0.649902130172
206.525815727       -0.557519857799
207.025878235       -0.468731082728
207.525940743       -0.383096743644
208.02600325       -0.300202964276
208.526065758       -0.219658575582
209.026128266       -0.141092564125
209.526190774       -0.0641515040645
210.026253282       0.0115029913172
210.526315789       0.08619677856
211.026378297       0.160245645105
211.526440805       0.233957722722
212.026503313       0.307635859719
212.526565821       0.381579962897
213.026628329       0.456089323504
213.526690836       0.531464943892
214.026753344       0.608011883353
214.526815852       0.686041642945
215.02687836       0.765874610136
215.526940868       0.847842584768
216.027003375       0.932291408267
216.527065883       1.01958371814
217.027128391       1.11010184936
217.527190899       1.2042509035
218.027253407       1.30246200434
218.527315914       1.40519575611
219.027378422       1.5129459155
219.52744093       1.62624328173
220.027503438       1.74565979889
220.527565946       1.87181284984
221.027628454       2.00536970093
221.527690961       2.14705202797
222.027753469       2.29764041513
222.527815977       2.45797866545
223.027878485       2.62897769026
223.527940993       2.81161865006
224.0280035       3.00695489379
224.528066008       3.21611207975
225.028128516       3.4402856499
225.528191024       3.68073456042
226.028253532       3.93876983517
226.52831604       4.21573609829
227.028378547       4.51298375668
227.528441055       4.83182895351
228.028503563       5.17349783424
228.528566071       5.5390511258
229.028628579       5.92928465411
229.528691086       6.34460141918
230.028753594       6.78485152357
230.528816102       7.24913804401
231.02887861       7.73559040052
231.528941118       8.24111251819
232.029003625       8.76112158895
232.529066133       9.28930459786
233.029128641       9.81743316089
233.529191149       10.3352903386
234.029253657       10.8307717457
234.529316165       11.2902214888
235.029378672       11.6990447623
235.52944118       12.0425991049
236.029503688       12.3073073385
236.529566196       12.4818683182
237.029628704       12.5583870928
237.529691211       12.5332271518
238.029753719       12.4074197406
238.529816227       12.1865465753
239.029878735       11.88012021
239.529941243       11.5005864226
240.03000375       11.0621344655
240.530066258       10.579509904
241.030128766       10.0669875844
241.530191274       9.53759942213
242.030253782       9.00264624907
242.53031629       8.47147158482
243.030378797       7.95144485363
243.530441305       7.44809101488
244.030503813       6.9653071841
244.530566321       6.50561807837
245.030628829       6.07043575172
245.530691336       5.660301762
246.030753844       5.27510005597
246.530816352       4.91423611275
247.03087886       4.5767825555
247.530941368       4.26159409927
248.031003875       3.96739594502
248.531066383       3.69285006117
249.031128891       3.43660359408
249.531191399       3.19732318149
250.031253907       2.97371837294
250.531316415       2.76455678912
251.031378922       2.56867312788
251.53144143       2.38497367162
252.031503938       2.21243757376
252.531566446       2.0501158961
253.031628954       1.89712912694
253.531691461       1.75266371996
254.031753969       1.61596804869
254.531816477       1.48634805978
255.031878985       1.36316282484
255.531941493       1.24582012812
256.032004001       1.13377218096
256.532066508       1.02651152005
257.032129016       0.923567122205
257.532191524       0.824500750637
258.032254032       0.728903535537
258.53231654       0.636392783185
259.032379047       0.546609002134
259.532441555       0.459213131321
260.032504063       0.37388395269
260.532566571       0.290315669665
261.032629079       0.208215632228
261.532691586       0.127302189238
262.032754094       0.0473026487704
262.532816602       -0.0320486724716
263.03287911       -0.11101232924
263.532941618       -0.189845575591
264.033004126       -0.268804158468
264.533066633       -0.348144094795
265.033129141       -0.428123449789
265.533191649       -0.509004134219
266.033254157       -0.591053738492
266.533316665       -0.674547421737
267.033379172       -0.759769874403
267.53344168       -0.847017373355
268.033504188       -0.936599948951
268.533566696       -1.02884368403
269.033629204       -1.12409316518
269.533691711       -1.22271410684
270.033754219       -1.32509616856
270.533816727       -1.43165598533
271.033879235       -1.54284042894
271.533941743       -1.65913011612
272.034004251       -1.78104317453
272.534066758       -1.90913927098
273.034129266       -2.04402389631
273.534191774       -2.18635288671
274.034254282       -2.33683714099
274.53431679       -2.49624746425
275.034379297       -2.66541942913
275.534441805       -2.84525809183
276.034504313       -3.03674232717
276.534566821       -3.24092844979
277.034629329       -3.45895265974
