#  x                 y             frequency           rot. str.
0.0      0.48712674981      41.12      13.38
0.500062507813      0.498804400774      154.05      8.67
1.00012501563      0.510898569496      207.42      4.27
1.50018752344      0.523429019267      270.51      -40.17
2.00025003125      0.536416682174      285.77      -7.21
2.50031253907      0.549883741629      289.14      -6.81
3.00037504688      0.56385372164      454.17      -16.59
3.50043755469      0.578351583457      502.48      32.18
4.00050006251      0.593403830271      522.86      39.42
4.50056257032      0.609038620729      591.22      53.30
5.00062507813      0.625285892094      622.19      -48.43
5.50068758595      0.642177493984      747.69      5.43
6.00075009376      0.659747333706      811.62      21.87
6.50081260158      0.678031534311      851.88      -76.84
7.00087510939      0.697068606625      993.44      8.28
7.5009376172      0.716899636643      1024.20      -8.74
8.00100012502      0.737568489809      1079.89      10.76
8.50106263283      0.759122033902      1116.90      -75.17
9.00112514064      0.781610382393      1149.32      114.05
9.50118764846      0.805087160393      1183.83      14.26
10.0012501563      0.829609795499      1245.16      21.42
10.5013126641      0.855239836135      1312.42      -18.17
11.0013751719      0.882043300259      1379.01      -9.89
11.5014376797      0.910091057629      1386.47      136.13
12.0015001875      0.939459249172      1399.44      -51.79
12.5015626953      0.970229747421      1423.92      -37.08
13.0016252032      1.00249066239      1500.92      1.92
13.501687711      1.03633689775      1660.29      13.17
14.0017502188      1.07187076278      1786.21      34.46
14.5018127266      1.10920264603      2994.47      -4.38
15.0018752344      1.14845175736      3055.37      -2.78
15.5019377422      1.18974694584      3106.49      -2.95
16.00200025      1.23322760149      3489.41      1.17
16.5020627578      1.27904465      3573.60      0.59
17.0021252657      1.32736165023      3718.09      -0.06
17.5021877735      1.37835600535      3761.50      9.48
18.0022502813       1.43222029935
18.5023127891       1.48916377187
19.0023752969       1.54941394491
19.5024378047       1.61321841616
20.0025003125       1.68084683431
20.5025628204       1.75259307218
21.0026253282       1.82877761357
21.502687836       1.90975016921
22.0027503438       1.99589253578
22.5028128516       2.08762170935
23.0028753594       2.18539325996
23.5029378672       2.28970496726
24.003000375       2.40110070708
24.5030628829       2.52017456338
25.0031253907       2.64757511965
25.5031878985       2.78400985401
26.0032504063       2.9302495221
26.5033129141       3.08713235705
27.0033754219       3.25556784158
27.5034379297       3.43653970915
28.0035004376       3.63110770037
28.5035629454       3.84040743119
29.0036254532       4.06564750995
29.503687961       4.30810276131
30.0037504688       4.56910206685
30.5038129766       4.85000890763
31.0038754844       5.15219219231
31.5039379922       5.4769843884
32.0040005001       5.82562338001
32.5040630079       6.19917392592
33.0041255157       6.59842422022
33.5041880235       7.02375307865
34.0042505313       7.47496401414
34.5043130391       7.95108437701
35.0043755469       8.45013139164
35.5044380548       8.9688529421
36.0045005626       9.50245983885
36.5045630704       10.04437808
37.0046255782       10.5860633995
37.504688086       11.1169337312
38.0047505938       11.6244837092
38.5048131016       12.0946427613
39.0048756095       12.5124181389
39.5049381173       12.8628222768
40.0050006251       13.1320226176
40.5050631329       13.3085835352
41.0051256407       13.3846153835
41.5051881485       13.3566287064
42.0052506563       13.2259275673
42.5053131641       12.9984614684
43.005375672       12.6841664656
43.5054381798       12.295927372
44.0055006876       11.8483533876
44.5055631954       11.3565658687
45.0056257032       10.8351568998
45.505688211       10.2974122181
46.0057507188       9.7548253272
46.5058132267       9.21687798232
47.0058757345       8.69103223538
47.5059382423       8.18286930892
48.0060007501       7.6963148261
48.5060632579       7.23390170344
49.0061257657       6.79703600562
49.5061882735       6.38624395152
50.0062507813       6.00138851255
50.5063132892       5.64185133451
51.006375797       5.30668038195
51.5064383048       4.99470634093
52.0065008126       4.7046320304
52.5065633204       4.43509937608
53.0066258282       4.18473827642
53.506688336       3.95220120189
54.0067508439       3.73618678277
54.5068133517       3.53545505528
55.0068758595       3.34883650227
55.5069383673       3.17523656386
56.0070008751       3.01363691087
56.5070633829       2.86309446412
57.0071258907       2.72273889735
57.5071883985       2.59176916975
58.0072509064       2.46944948706
58.5073134142       2.3551049777
59.007375922       2.24811728613
59.5074384298       2.14792022244
60.0075009376       2.05399556086
60.5075634454       1.96586904557
61.0076259532       1.88310663797
61.5076884611       1.80531102173
62.0077509689       1.7321183701
62.5078134767       1.66319537147
63.0078759845       1.59823650347
63.5079384923       1.536961543
64.0080010001       1.47911329706
64.5080635079       1.42445553882
65.0081260158       1.37277113287
65.5081885236       1.32386033406
66.0082510314       1.27753924496
66.5083135392       1.23363841769
67.008376047       1.19200158703
67.5084385548       1.15248452239
68.0085010626       1.11495398746
68.5085635704       1.07928679726
69.0086260783       1.04536896312
69.5086885861       1.01309491709
70.0087510939       0.982366808077
70.5088136017       0.953093862727
71.0088761095       0.925191804717
71.5089386173       0.898582326803
72.0090011251       0.873192610514
72.509063633       0.848954888867
73.0091261408       0.825806047973
73.5091886486       0.803687263814
74.0092511564       0.782543670816
74.5093136642       0.762324059231
75.009376172       0.742980598593
75.5094386798       0.724468584814
76.0095011876       0.706746208732
76.5095636955       0.689774344114
77.0096262033       0.673516353341
77.5096887111       0.657937909169
78.0097512189       0.643006831112
78.5098137267       0.628692935133
79.0098762345       0.614967895477
79.5099387423       0.601805117559
80.0100012502       0.58917962096
80.510063758       0.577067931642
81.0101262658       0.5654479826
81.5101887736       0.554299022231
82.0102512814       0.543601529782
82.5103137892       0.533337137259
83.010376297       0.523488557305
83.5104388049       0.514039516519
84.0105013127       0.504974693801
84.5105638205       0.496279663321
85.0106263283       0.487940841731
85.5106888361       0.479945439299
86.0107513439       0.472281414667
86.5108138517       0.464937432946
87.0108763595       0.457902826901
87.5109388674       0.451167561
88.0110013752       0.444722198115
88.511063883       0.438557868685
89.0111263908       0.432666242164
89.5111888986       0.427039500604
90.0112514064       0.421670314216
90.5113139142       0.416551818789
91.0113764221       0.411677594837
91.5114389299       0.40704164837
92.0115014377       0.402638393191
92.5115639455       0.398462634618
93.0116264533       0.394509554565
93.5116889611       0.390774697889
94.0117514689       0.387253959955
94.5118139767       0.383943575341
95.0118764846       0.380840107639
95.5119389924       0.377940440304
96.0120015002       0.375241768502
96.512064008       0.372741591923
97.0121265158       0.370437708526
97.5121890236       0.368328209192
98.0122515314       0.366411473251
98.5123140393       0.364686164874
99.0123765471       0.363151230316
99.5124390549       0.36180589599
100.012501563       0.360649667374
100.512564071       0.359682328743
101.012626578       0.358903943736
101.512689086       0.358314856756
102.012751594       0.357915695212
102.512814102       0.357707372627
103.01287661       0.357691092622
103.512939117       0.357868353803
104.013001625       0.358240955574
104.513064133       0.358811004919
105.013126641       0.359580924183
105.513189149       0.360553459889
106.013251656       0.361731692667
106.513314164       0.363119048313
107.013376672       0.364719310073
107.51343918       0.366536632205
108.013501688       0.368575554899
108.513564196       0.370841020643
109.013626703       0.373338392131
109.513689211       0.376073471808
110.013751719       0.379052523191
110.513814227       0.382282294062
111.013876735       0.385770041698
111.513939242       0.389523560289
112.01400175       0.3935512107
112.514064258       0.397861952786
113.014126766       0.402465380445
113.514189274       0.407371759658
114.014251781       0.412592069741
114.514314289       0.418138048117
115.014376797       0.424022238875
115.514439305       0.43025804548
116.014501813       0.43685978799
116.514564321       0.443842765186
117.014626828       0.45122332207
117.514689336       0.459018923225
118.014751844       0.467248232579
118.514814352       0.475931200192
119.01487686       0.485089156724
119.514939367       0.494744916336
120.015001875       0.504922888831
120.515064383       0.515649201971
121.015126891       0.526951834952
121.515189399       0.538860764176
122.015251906       0.551408122555
122.515314414       0.564628373732
123.015376922       0.578558502749
123.51543943       0.593238224868
124.015501938       0.608710214436
124.515564446       0.625020355906
125.015626953       0.642218019346
125.515689461       0.660356363049
126.015751969       0.679492666127
126.515814477       0.699688694308
127.015876985       0.721011102507
127.515939492       0.743531878134
128.016002       0.767328829518
128.516064508       0.792486124331
129.016127016       0.819094883354
129.516189524       0.847253835529
130.016252032       0.877070040781
130.516314539       0.90865968775
131.016377047       0.942148974164
131.516439555       0.977675078266
132.016502063       1.01538723029
132.516564571       1.05544789359
133.016627078       1.09803406536
133.516689586       1.1433387074
134.016752094       1.19157231703
134.516814602       1.24296464814
135.01687711       1.29776659116
135.516939617       1.35625221886
136.017002125       1.41872100178
136.517064633       1.48550019228
137.017127141       1.5569473692
137.517189649       1.63345312467
138.017252157       1.7154438605
138.517314664       1.80338464117
139.017377172       1.8977820232
139.51743968       1.99918674295
140.017502188       2.10819609495
140.517564696       2.22545576538
141.017627203       2.35166079756
141.517689711       2.48755525074
142.017752219       2.63392996549
142.517814727       2.79161766121
143.017877235       2.96148435727
143.517939742       3.14441582581
144.01800225       3.34129745127
144.518064758       3.55298549964
145.018127266       3.78026741618
145.518189774       4.02380842623
146.018252282       4.28408150436
146.518314789       4.56127785222
147.018377297       4.85519560982
147.518439805       5.16510592654
148.018502313       5.48959811744
148.518564821       5.82640982561
149.018627328       6.17225419171
149.518689836       6.52266394705
150.018752344       6.87188136975
150.518814852       7.21283139382
151.01887736       7.5372197618
151.518939867       7.83579481169
152.019002375       8.09879612454
152.519064883       8.31658370798
153.019127391       8.48040017686
153.519189899       8.58317444316
154.019252407       8.62024311549
154.519314914       8.58986014022
155.019377422       8.49339443506
155.51943993       8.33517487185
156.019502438       8.12201456987
156.519564946       7.86250881274
157.019627453       7.56623439024
157.519689961       7.24297655985
158.019752469       6.90208004127
158.519814977       6.55197709028
159.019877485       6.19990353244
159.519939992       5.85178239617
160.0200025       5.51223772083
160.520065008       5.18469653873
161.020127516       4.87154089725
161.520190024       4.57427986899
162.020252532       4.29372055924
162.520315039       4.03012522854
163.020377547       3.7833479669
163.520440055       3.55294877194
164.020502563       3.33828565793
164.520565071       3.1385869498
165.020627578       2.95300658295
165.520690086       2.78066535346
166.020752594       2.6206808798
166.520815102       2.47218870313
167.02087761       2.33435657086
167.520940118       2.20639357234
168.021002625       2.08755545738
168.521065133       1.97714717824
169.021127641       1.87452345593
169.521190149       1.77908797861
170.021252657       1.69029168721
170.521315164       1.60763048439
171.021377672       1.53064261185
171.52144018       1.45890587166
172.021502688       1.39203481512
172.521565196       1.32967798385
173.021627703       1.27151525932
173.521690211       1.21725535595
174.021752719       1.16663347833
174.521815227       1.11940915195
175.021877735       1.07536422998
175.521940243       1.03430107322
176.02200275       0.996040897534
176.522065258       0.960422280629
177.022127766       0.927299819536
177.522190274       0.896542929332
178.022252782       0.868034773906
178.522315289       0.841671319897
179.022377797       0.817360505465
179.522440305       0.795021516289
180.022502813       0.774584161949
180.522565321       0.755988346659
181.022627828       0.739183629175
181.522690336       0.7241288675
182.022752844       0.710791944873
182.522815352       0.699149574318
183.02287786       0.689187179813
183.522940368       0.680898852925
184.023002875       0.674287384476
184.523065383       0.66936437154
185.023127891       0.666150400715
185.523190399       0.664675309261
186.023252907       0.664978526248
186.523315414       0.667109496311
187.023377922       0.671128188973
187.52344043       0.677105696637
188.023502938       0.685124924268
188.523565446       0.695281373348
189.023627953       0.707684021743
189.523690461       0.722456299551
190.023752969       0.739737158458
190.523815477       0.759682228394
191.023877985       0.782465049825
191.523940493       0.808278362319
192.024003       0.837335419329
192.524065508       0.869871284412
193.024128016       0.906144044176
193.524190524       0.946435846492
194.024253032       0.991053636912
194.524315539       1.0403294195
195.024378047       1.09461980745
195.524440555       1.15430455097
196.024503063       1.21978363148
196.524565571       1.29147238939
197.024628079       1.36979400641
197.524690586       1.45516849338
198.024753094       1.54799714762
198.524815602       1.64864125731
199.02487811       1.7573936729
199.524940618       1.87444179234
200.025003125       1.99982059966
200.525065633       2.13335477751
201.025128141       2.27458974611
201.525190649       2.42271295724
202.025253157       2.57646908234
202.525315664       2.73407598841
203.025378172       2.89315249714
203.52544068       3.05067338885
204.025503188       3.20297089841
204.525565696       3.34580336927
205.025628204       3.47450866617
205.525690711       3.58425050067
206.025753219       3.67034945135
206.525815727       3.72866922101
207.025878235       3.75600781976
207.525940743       3.75043037317
208.02600325       3.71148198353
208.526065758       3.64023807145
209.026128266       3.53918179075
209.526190774       3.41193362313
210.026253282       3.2628857797
210.526315789       3.09680581275
211.026378297       2.91846869235
211.526440805       2.73235932471
212.026503313       2.54246564211
212.526565821       2.35216275991
213.026628329       2.16417518327
213.526690836       1.98059747835
214.026753344       1.80295292264
214.526815852       1.63227231373
215.02687836       1.46917935931
215.526940868       1.31397347404
216.027003375       1.16670458416
216.527065883       1.0272373914
217.027128391       0.895304484341
217.527190899       0.770548863904
218.027253407       0.65255706827
218.527315914       0.540884323784
219.027378422       0.435073158382
219.52744093       0.334666796851
220.027503438       0.239218482552
220.527565946       0.148297680486
221.027628454       0.0614939356655
221.527690961       -0.0215809997172
222.027753469       -0.101292292874
222.527815977       -0.17798204484
223.027878485       -0.251969916255
223.527940993       -0.323554158362
224.0280035       -0.393012897665
224.528066008       -0.460605564425
225.028128516       -0.526574386884
225.528191024       -0.591145896823
226.028253532       -0.654532409758
226.52831604       -0.716933456036
227.028378547       -0.778537148596
227.528441055       -0.839521479957
228.028503563       -0.900055545835
228.528566071       -0.960300696163
229.028628579       -1.0204116166
229.528691086       -1.08053734511
230.028753594       -1.14082222919
230.528816102       -1.2014068299
231.02887861       -1.26242877896
231.528941118       -1.32402359573
232.029003625       -1.38632547031
232.529066133       -1.44946801939
233.029128641       -1.51358502115
233.529191149       -1.57881113548
234.029253657       -1.64528261567
234.529316165       -1.7131380176
235.029378672       -1.78251891263
235.52944118       -1.85357061013
236.029503688       -1.92644289589
236.529566196       -2.00129079271
237.029628704       -2.07827534952
237.529691211       -2.15756446598
238.029753719       -2.23933375949
238.529816227       -2.32376748203
239.029878735       -2.41105949507
239.529941243       -2.50141431082
240.03000375       -2.59504820927
240.530066258       -2.69219044095
241.030128766       -2.7930845264
241.530191274       -2.89798966424
242.030253782       -3.00718226107
242.53031629       -3.12095759744
243.030378797       -3.23963164593
243.530441305       -3.36354305876
244.030503813       -3.49305534416
244.530566321       -3.62855925296
245.030628829       -3.77047539858
245.530691336       -3.91925713653
246.030753844       -4.07539373159
246.530816352       -4.2394138439
247.03087886       -4.41188936782
247.530941368       -4.59343966067
248.031003875       -4.7847362011
248.531066383       -4.98650771998
249.031128891       -5.19954584915
249.531191399       -5.42471133554
250.031253907       -5.66294086919
250.531316415       -5.91525457381
251.031378922       -6.1827642061
251.53144143       -6.46668210501
252.031503938       -6.76833092302
252.531566446       -7.08915415624
253.031628954       -7.43072746711
253.531691461       -7.79477075941
254.031753969       -8.18316091617
254.531816477       -8.59794504186
255.031878985       -9.04135395415
255.531941493       -9.51581553872
256.032004001       -10.0239674015
256.532066508       -10.5686680128
257.032129016       -11.1530052168
257.532191524       -11.7803005611
258.032254032       -12.4541073496
258.53231654       -13.1781996213
259.032379047       -13.9565483607
259.532441555       -14.7932801433
260.032504063       -15.6926120767
260.532566571       -16.6587553353
261.032629079       -17.6957778472
261.532691586       -18.8074149197
262.032754094       -19.9968150393
262.532816602       -21.2662072145
263.03287911       -22.6164767829
263.532941618       -24.0466396451
264.033004126       -25.553211902
264.533066633       -27.1294846306
265.033129141       -28.7647338819
265.533191649       -30.4434251336
266.033254157       -32.1445089019
266.533316665       -33.8409461865
267.033379172       -35.4996400182
267.53344168       -37.0819676922
268.033504188       -38.5450877437
268.533566696       -39.844117553
269.033629204       -40.9351335849
269.533691711       -41.7787513572
270.033754219       -42.3438409323
270.533816727       -42.6107943451
271.033879235       -42.5737517573
271.533941743       -42.2413460381
272.034004251       -41.6358129348
272.534066758       -40.7906504048
273.034129266       -39.7472882455
273.534191774       -38.5513666609
274.034254282       -37.2491980664
274.53431679       -35.8848377888
275.034379297       -34.4979856882
275.534441805       -33.1227489295
276.034504313       -31.7871579654
276.534566821       -30.5132553133
277.034629329       -29.3175603533
277.534691836       -28.2117339467
