#  x                 y             frequency           rot. str.
0.0      -0.101384010053      67.52      -15.03
0.500062507813      -0.103734710091      116.94      15.80
1.00012501563      -0.106145285996      200.35      -8.96
1.50018752344      -0.108617624085      245.89      -20.20
2.00025003125      -0.111153683012      283.49      78.58
2.50031253907      -0.113755497064      321.43      -4.17
3.00037504688      -0.116425179618      371.31      42.20
3.50043755469      -0.119164926797      428.04      -1.05
4.00050006251      -0.121977021308      526.49      0.01
4.50056257032      -0.124863836495      613.69      -63.81
5.00062507813      -0.127827840609      736.95      59.56
5.50068758595      -0.130871601314      852.71      -15.81
6.00075009376      -0.133997790436      859.93      -85.52
6.50081260158      -0.137209188983      887.17      48.32
7.00087510939      -0.140508692436      964.12      43.79
7.5009376172      -0.143899316351      1047.56      -77.11
8.00100012502      -0.147384202263      1089.49      5.97
8.50106263283      -0.150966623938      1111.67      62.41
9.00112514064      -0.154649993986      1187.50      29.43
9.50118764846      -0.158437870849      1212.91      -35.47
10.0012501563      -0.162333966202      1237.63      -32.29
10.5013126641      -0.166342152797      1271.81      -39.17
11.0013751719      -0.170466472757      1315.90      -37.10
11.5014376797      -0.174711146381      1402.21      -89.95
12.0015001875      -0.179080581472      1413.70      127.88
12.5015626953      -0.183579383237      1444.03      1.40
13.0016252032      -0.188212364782      1519.12      -0.20
13.501687711      -0.192984558274      1665.89      -12.54
14.0017502188      -0.197901226779      1834.74      -12.91
14.5018127266      -0.202967876857      2977.95      0.95
15.0018752344      -0.208190271942      3043.02      -5.76
15.5019377422      -0.213574446589      3073.78      5.68
16.00200025      -0.219126721623      3447.24      -5.10
16.5020627578      -0.22485372028      3487.43      6.01
17.0021252657      -0.230762385403      3572.86      -7.31
17.5021877735      -0.236859997771      3816.76      0.19
18.0022502813       -0.243154195641
18.5023127891       -0.249652995616
19.0023752969       -0.25636481491
19.5024378047       -0.26329849514
20.0025003125       -0.270463327761
20.5025628204       -0.277869081258
21.0026253282       -0.28552603025
21.502687836       -0.293444986656
22.0027503438       -0.301637333075
22.5028128516       -0.310115058577
23.0028753594       -0.318890797091
23.5029378672       -0.327977868616
24.003000375       -0.337390323465
24.5030628829       -0.347142989832
25.0031253907       -0.357251524934
25.5031878985       -0.367732470046
26.0032504063       -0.378603309766
26.5033129141       -0.389882535875
27.0033754219       -0.401589716195
27.5034379297       -0.413745568888
28.0035004376       -0.426372042681
28.5035629454       -0.439492403562
29.0036254532       -0.453131328519
29.503687961       -0.467315006979
30.0037504688       -0.482071250662
30.5038129766       -0.497429612633
31.0038754844       -0.513421516413
31.5039379922       -0.530080396128
32.0040005001       -0.547441848723
32.5040630079       -0.565543799444
33.0041255157       -0.584426681857
33.5041880235       -0.604133633849
34.0042505313       -0.624710711201
34.5043130391       -0.646207120477
35.0043755469       -0.668675473206
35.5044380548       -0.692172063496
36.0045005626       -0.7167571715
36.5045630704       -0.742495395399
37.0046255782       -0.769456014873
37.504688086       -0.797713389347
38.0047505938       -0.827347394688
38.5048131016       -0.858443902427
39.0048756095       -0.891095306017
39.5049381173       -0.925401099195
40.0050006251       -0.961468512013
40.5050631329       -0.999413210756
41.0051256407       -1.03936006866
41.5051881485       -1.08144401504
42.0052506563       -1.1258109713
42.5053131641       -1.1726188832
43.005375672       -1.22203885959
43.5054381798       -1.27425642902
44.0055006876       -1.32947292653
44.5055631954       -1.38790702418
45.0056257032       -1.44979641981
45.505688211       -1.51539969975
46.0057507188       -1.58499839217
46.5058132267       -1.65889922821
47.0058757345       -1.73743662916
47.5059382423       -1.82097543703
48.0060007501       -1.90991390596
48.5060632579       -2.00468696939
49.0061257657       -2.10576979494
49.5061882735       -2.21368163327
50.0062507813       -2.3289899588
50.5063132892       -2.45231488774
51.006375797       -2.5843338407
51.5064383048       -2.72578639226
52.0065008126       -2.87747921401
52.5065633204       -3.04029096986
53.0066258282       -3.21517695638
53.506688336       -3.40317319286
54.0067508439       -3.60539954835
54.5068133517       -3.82306133838
55.0068758595       -4.05744862222
55.5069383673       -4.30993217253
56.0070008751       -4.58195476047
56.5070633829       -4.87501599104
57.0071258907       -5.19064842813
57.5071883985       -5.53038216853
58.0072509064       -5.89569437776
58.5073134142       -6.28793963405
59.007375922       -6.70825633699
59.5074384298       -7.15744408647
60.0075009376       -7.6358070945
60.5075634454       -8.14295974863
61.0076259532       -8.67759294238
61.5076884611       -9.23720438794
62.0077509689       -9.81780351712
62.5078134767       -10.4136122467
63.0078759845       -11.0167967123
63.5079384923       -11.6172807428
64.0080010001       -12.2027061874
64.5080635079       -12.758612797
65.0081260158       -13.2689039648
65.5081885236       -13.7166370804
66.0082510314       -14.0851251028
66.5083135392       -14.3592639697
67.008376047       -14.5269245425
67.5084385548       -14.5801931
68.0085010626       -14.5162367382
68.5085635704       -14.3376230113
69.0086260783       -14.0520280189
69.5086885861       -13.6713930729
70.0087510939       -13.2106967411
70.5088136017       -12.6865648214
71.0088761095       -12.1159357959
71.5089386173       -11.5149462774
72.0090011251       -10.8981254193
72.509063633       -10.2779146548
73.0091261408       -9.66447587817
73.5091886486       -9.06572252278
74.0092511564       -8.4875007622
74.5093136642       -7.93385517127
75.009376172       -7.40732734933
75.5094386798       -6.90925170088
76.0095011876       -6.4400265227
76.5095636955       -5.99934937184
77.0096262033       -5.58641322363
77.5096887111       -5.20006464296
78.0097512189       -4.83892777019
78.5098137267       -4.50149903351
79.0098762345       -4.18621768739
79.5099387423       -3.89151694329
80.0100012502       -3.61585987506
80.510063758       -3.3577636164
81.0101262658       -3.11581471856
81.5101887736       -2.88867795268
82.0102512814       -2.67510034178
82.5103137892       -2.47391179485
83.010376297       -2.28402338339
83.5104388049       -2.10442403828
84.0105013127       -1.93417624068
84.5105638205       -1.77241112384
85.0106263283       -1.6183232836
85.5106888361       -1.47116550551
86.0107513439       -1.33024355001
86.5108138517       -1.19491108728
87.0108763595       -1.06456483774
87.5109388674       -0.938639947702
88.0110013752       -0.816605611134
88.511063883       -0.697960935307
89.0111263908       -0.582231038884
89.5111888986       -0.468963364858
90.0112514064       -0.357724186612
90.5113139142       -0.248095282721
91.0113764221       -0.13967075454
91.5114389299       -0.0320539596284
92.0115014377       0.0751454663802
92.5115639455       0.182314527162
93.0116264533       0.289839750121
93.5116889611       0.398110065705
94.0117514689       0.507519709533
94.5118139767       0.618471175301
95.0118764846       0.731378246491
95.5119389924       0.846669134846
96.0120015002       0.964789753418
96.512064008       1.0862071515
97.0121265158       1.21141313776
97.5121890236       1.34092811621
98.0122515314       1.4753051567
98.5123140393       1.61513431724
99.0123765471       1.76104722852
99.5124390549       1.91372194107
100.012501563       2.07388802103
100.512564071       2.24233185994
101.012626578       2.41990213557
101.512689086       2.60751532103
102.012751594       2.80616108585
102.512814102       3.01690735953
103.01287661       3.24090473037
103.512939117       3.4793897229
104.013001625       3.73368632629
104.513064133       4.00520492488
105.013126641       4.29543749718
105.513189149       4.60594759056
106.013251656       4.93835313406
106.513314164       5.29429961502
107.013376672       5.67542052131
107.51343918       6.08328126265
108.013501688       6.51930208948
108.513564196       6.9846549354
109.013626703       7.48012880968
109.513689211       8.00595865968
110.013751719       8.56161395028
110.513814227       9.14554616021
111.013876735       9.75489968673
111.513939242       10.3851989882
112.01400175       11.0300366189
112.514064258       11.6808018234
113.014126766       12.3265058908
113.514189274       12.953774792
114.014251781       13.5470856429
114.514314289       14.0893134683
115.014376797       14.5626213962
115.514439305       14.9496683366
116.014501813       15.2350302824
116.514564321       15.4066533522
117.014626828       15.4571059694
117.514689336       15.3844000527
118.014751844       15.1922175731
118.514814352       14.8894957034
119.01487686       14.4894556952
119.514939367       14.0082653653
120.015001875       13.4635726897
120.515064383       12.8731325409
121.015126891       12.2536866898
121.515189399       11.6201765981
122.015251906       10.9852948054
122.515314414       10.3593291062
123.015376922       9.75022787782
123.51543943       9.163810497
124.015501938       8.60405604924
124.515564446       8.07341904839
125.015626953       7.573137249
125.515689461       7.10351079467
126.015751969       6.66414271617
126.515814477       6.25413815678
127.015876985       5.87226421783
127.515939492       5.51707471469
128.016002       5.18700509669
128.516064508       4.88044286194
129.016127016       4.59577838509
129.516189524       4.33144043749
130.016252032       4.08591997751
130.516314539       3.85778511599
131.016377047       3.64568956205
131.516439555       3.44837634619
132.016502063       3.26467819894
132.516564571       3.09351562779
133.016627078       2.93389347118
133.516689586       2.78489650275
134.016752094       2.64568450238
134.516814602       2.51548709113
135.01687711       2.39359853795
135.516939617       2.27937267961
136.017002125       2.1722180463
136.517064633       2.07159325
137.017127141       1.97700266708
137.517189649       1.88799242843
138.017252157       1.80414671816
138.517314664       1.72508437326
139.017377172       1.65045577121
139.51743968       1.57993998932
140.017502188       1.51324221766
140.517564696       1.45009140679
141.017627203       1.39023813162
141.517689711       1.33345265308
142.017752219       1.27952316036
142.517814727       1.2282541772
143.017877235       1.17946511729
143.517939742       1.1329889744
144.01800225       1.08867113472
144.518064758       1.04636829929
145.018127266       1.00594750608
145.518189774       0.967285241833
146.018252282       0.930266634896
146.518314789       0.894784721172
147.018377297       0.860739775891
147.518439805       0.828038704804
148.018502313       0.796594488931
148.518564821       0.766325677616
149.018627328       0.737155925148
149.518689836       0.709013566678
150.018752344       0.681831229591
150.518814852       0.655545476853
151.01887736       0.630096479219
151.518939867       0.605427713459
152.019002375       0.58148568405
152.519064883       0.55821966603
153.019127391       0.535581466898
153.519189899       0.513525205674
154.019252407       0.492007107363
154.519314914       0.470985311263
155.019377422       0.45041969166
155.51943993       0.430271689578
156.019502438       0.410504154379
156.519564946       0.391081194066
157.019627453       0.371968033266
157.519689961       0.353130877893
158.019752469       0.334536785593
158.519814977       0.316153541102
159.019877485       0.297949535702
159.519939992       0.279893649982
160.0200025       0.261955139162
160.520065008       0.244103520229
161.020127516       0.226308460179
161.520190024       0.208539664643
162.020252532       0.19076676618
162.520315039       0.172959211524
163.020377547       0.155086147047
163.520440055       0.137116301686
164.020502563       0.119017866543
164.520565071       0.100758370358
165.020627578       0.0823045499685
165.520690086       0.0636222148699
166.020752594       0.0446761048733
166.520815102       0.0254297398316
167.02087761       0.00584526029455
167.520940118       -0.0141167421332
168.021002625       -0.0344974060652
168.521065133       -0.0553397946967
169.021127641       -0.0766891048575
169.521190149       -0.0985928925079
170.021252657       -0.121101316611
170.521315164       -0.144267403512
171.021377672       -0.168147334178
171.52144018       -0.192800756896
172.021502688       -0.218291128318
172.521565196       -0.244686086022
173.021627703       -0.272057856144
173.521690211       -0.30048369996
174.021752719       -0.330046403764
174.521815227       -0.360834816817
175.021877735       -0.392944442649
175.521940243       -0.426478089533
176.02200275       -0.461546586542
176.522065258       -0.498269572202
177.022127766       -0.536776363411
177.522190274       -0.577206912934
178.022252782       -0.619712864465
178.522315289       -0.664458714838
179.022377797       -0.711623093528
179.522440305       -0.761400169966
180.022502813       -0.81400119939
180.522565321       -0.869656217761
181.022627828       -0.928615895621
181.522690336       -0.991153559343
182.022752844       -1.05756738581
182.522815352       -1.12818277265
183.02287786       -1.20335488044
183.522940368       -1.28347133445
184.023002875       -1.36895506173
184.523065383       -1.4602672218
185.023127891       -1.55791016587
185.523190399       -1.66243032695
186.023252907       -1.7744208996
186.523315414       -1.8945241095
187.023377922       -2.02343279523
187.52344043       -2.16189092286
188.023502938       -2.31069252165
188.523565446       -2.47067836009
189.023627953       -2.64272946828
189.523690461       -2.82775635045
190.023752969       -3.02668241659
190.523815477       -3.24041979956
191.023877985       -3.4698353296
191.523940493       -3.71570404967
192.024003       -3.97864734183
192.524065508       -4.25905261686
193.024128016       -4.55697178058
193.524190524       -4.87199659836
194.024253032       -5.20311098664
194.524315539       -5.54852357789
195.024378047       -5.90548901989
195.524440555       -6.27013357169
196.024503063       -6.63730935437
196.524565571       -7.00051095033
197.024628079       -7.35189554092
197.524690586       -7.68244972279
198.024753094       -7.98233806116
198.524815602       -8.24144657748
199.02487811       -8.450098196
199.524940618       -8.59987191501
200.025003125       -8.68441500831
200.525065633       -8.70011384177
201.025128141       -8.64649749742
201.525190649       -8.52629292371
202.025253157       -8.34512021249
202.525315664       -8.1108901569
203.025378172       -7.83302011698
203.52544068       -7.52160383838
204.025503188       -7.18665573282
204.525565696       -6.83751156977
205.025628204       -6.48242159
205.525690711       -6.12833229509
206.025753219       -5.78082685235
206.525815727       -5.44418214214
207.025878235       -5.12149989346
207.525940743       -4.81487563013
208.02600325       -4.52557824609
208.526065758       -4.25422215687
209.026128266       -4.00092164615
209.526190774       -3.76542273183
210.026253282       -3.54721169668
210.526315789       -3.34560171477
211.026378297       -3.15980017182
211.526440805       -2.98895970112
212.026503313       -2.83221592973
212.526565821       -2.68871465984
213.026628329       -2.55763083535
213.526690836       -2.43818124619
214.026753344       -2.32963254861
214.526815852       -2.23130584982
215.02687836       -2.14257882807
215.526940868       -2.06288613184
216.027003375       -1.9917186213
216.527065883       -1.92862187232
217.027128391       -1.8731942543
217.527190899       -1.82508480894
218.027253407       -1.78399109387
218.527315914       -1.7496571085
219.027378422       -1.72187138432
219.52744093       -1.70046529725
220.027503438       -1.68531164142
220.527565946       -1.67632349163
221.027628454       -1.67345337334
221.527690961       -1.67669275365
222.027753469       -1.6860718639
222.527815977       -1.70165986306
223.027878485       -1.7235653509
223.527940993       -1.75193724051
224.0280035       -1.78696600084
224.528066008       -1.82888528137
225.028128516       -1.87797393203
225.528191024       -1.93455843277
226.028253532       -1.99901574699
226.52831604       -2.07177661292
227.028378547       -2.15332928385
227.528441055       -2.24422372414
228.028503563       -2.34507625977
228.528566071       -2.45657466987
229.028628579       -2.57948368765
229.528691086       -2.71465085265
230.028753594       -2.86301261901
230.528816102       -3.02560057264
231.02887861       -3.20354753927
231.528941118       -3.39809326888
232.029003625       -3.61058925303
232.529066133       -3.84250205995
233.029128641       -4.09541434691
233.529191149       -4.37102241665
234.029253657       -4.67112880959
234.529316165       -4.99762795091
235.029378672       -5.35248228754
235.52944118       -5.73768564934
236.029503688       -6.1552097574
236.529566196       -6.60692891655
237.029628704       -7.09451704792
237.529691211       -7.61931049302
238.029753719       -8.1821297129
238.529816227       -8.78305351913
239.029878735       -9.42114139751
239.529941243       -10.0941036017
240.03000375       -10.7979259252
240.530066258       -11.5264672903
241.030128766       -12.271064001
241.530191274       -13.0201941282
242.030253782       -13.759276597
242.53031629       -14.4706969645
243.030378797       -15.1341574486
243.530441305       -15.7274324133
244.030503813       -16.2275635217
244.530566321       -16.6124492229
245.030628829       -16.8626819175
245.530691336       -16.9633888786
246.030753844       -16.9057754923
246.530816352       -16.6880831854
247.03087886       -16.3157696333
247.530941368       -15.8008738294
248.031003875       -15.1606956392
248.531066383       -14.4160453354
249.031128891       -13.5893685467
249.531191399       -12.7030227127
250.031253907       -11.7778966962
250.531316415       -10.832461667
251.031378922       -9.8822500819
251.53144143       -8.93969797149
252.031503938       -8.01425681064
252.531566446       -7.11267849999
253.031628954       -6.23939039003
253.531691461       -5.39689758489
254.031753969       -4.58617047352
254.531816477       -3.80699301118
255.031878985       -3.05826044369
255.531941493       -2.33822404791
256.032004001       -1.64468581892
256.532066508       -0.975148807081
257.032129016       -0.3269298501
257.532191524       0.302758567718
258.032254032       0.916751183071
258.53231654       1.51789224372
259.032379047       2.10901281892
259.532441555       2.69291958386
260.032504063       3.2723922887
260.532566571       3.85018776372
261.032629079       4.4290488378
261.532691586       5.01171696899
262.032754094       5.60094771814
262.532816602       6.19952845352
263.03287911       6.81029787027
263.532941618       7.43616705482
264.033004126       8.08014192965
264.533066633       8.74534698477
265.033129141       9.43505024393
265.533191649       10.1526894263
266.033254157       10.9018992497
266.533316665       11.6865397756
267.033379172       12.5107256127
267.53344168       13.3788556694
268.033504188       14.2956429604
268.533566696       15.2661437156
269.033629204       16.2957846837
269.533691711       17.3903870526
270.033754219       18.5561847675
270.533816727       19.799834199
271.033879235       21.1284110246
271.533941743       22.5493887903
272.034004251       24.0705918583
272.534066758       25.7001132564
273.034129266       27.4461853021
273.534191774       29.316987796
274.034254282       31.3203751649
274.53431679       33.4635004691
