#  x                 y             frequency           rot. str.
0.0      -0.0304739305201      42.92      -3.41
0.500062507813      -0.0326341954194      155.67      15.95
1.00012501563      -0.0348805305068      213.49      46.50
1.50018752344      -0.0372170017727      225.85      -28.50
2.00025003125      -0.0396479087476      314.13      11.43
2.50031253907      -0.0421778004342      331.26      9.85
3.00037504688      -0.0448114924995      405.87      -1.24
3.50043755469      -0.047554085836      499.91      0.09
4.00050006251      -0.0504109866197      548.86      35.70
4.50056257032      -0.0533879279971      584.64      17.68
5.00062507813      -0.0564909935542      638.01      -45.03
5.50068758595      -0.0597266427307      760.09      34.49
6.00075009376      -0.0631017383621      794.09      -175.63
6.50081260158      -0.0666235765509      808.70      104.06
7.00087510939      -0.0702999190882      981.79      -10.52
7.5009376172      -0.07413902867      1048.58      1.02
8.00100012502      -0.0781497071814      1081.03      26.76
8.50106263283      -0.0823413373457      1119.20      40.05
9.00112514064      -0.0867239280726      1169.78      -59.62
9.50118764846      -0.0913081638715      1209.35      -0.53
10.0012501563      -0.0961054587387      1226.19      18.68
10.5013126641      -0.10112801497      1307.43      13.34
11.0013751719      -0.106388887398      1358.43      -48.83
11.5014376797      -0.111902053621      1365.28      -3.39
12.0015001875      -0.117682490822      1414.62      51.76
12.5015626953      -0.123746259891      1449.93      11.00
13.0016252032      -0.130110597592      1509.20      0.57
13.501687711      -0.136794017634      1657.61      -19.43
14.0017502188      -0.143816421599      1776.54      -63.29
14.5018127266      -0.151199220749      2957.26      4.32
15.0018752344      -0.158965469916      3040.59      11.94
15.5019377422      -0.167140014732      3067.89      -7.19
16.00200025      -0.17574965367      3499.88      0.75
16.5020627578      -0.184823316473      3581.65      0.79
17.0021252657      -0.19439226075      3704.05      -50.17
17.5021877735      -0.20449028868      3713.58      38.45
18.0022502813       -0.215153986013
18.5023127891       -0.226422985722
19.0023752969       -0.238340258929
19.5024378047       -0.250952435965
20.0025003125       -0.264310160677
20.5025628204       -0.278468481319
21.0026253282       -0.293487281657
21.502687836       -0.309431756068
22.0027503438       -0.326372932631
22.5028128516       -0.344388248253
23.0028753594       -0.363562179872
23.5029378672       -0.383986935522
24.003000375       -0.405763208613
24.5030628829       -0.429000997893
25.0031253907       -0.453820494225
25.5031878985       -0.480353033222
26.0032504063       -0.508742109757
26.5033129141       -0.539144445982
27.0033754219       -0.571731098376
27.5034379297       -0.606688580818
28.0035004376       -0.644219969042
28.5035629454       -0.684545936056
29.0036254532       -0.727905646927
29.503687961       -0.774557413213
30.0037504688       -0.824778970362
30.5038129766       -0.878867193306
31.0038754844       -0.937137003822
31.5039379922       -0.999919145337
32.0040005001       -1.06755640445
32.5040630079       -1.14039774227
33.0041255157       -1.21878966353
33.5041880235       -1.30306400294
34.0042505313       -1.39352115821
34.5043130391       -1.4904076722
35.0043755469       -1.59388700428
35.5044380548       -1.70400239751
36.0045005626       -1.82063104128
36.5045630704       -1.94342937512
37.0046255782       -2.07177053434
37.504688086       -2.20467675298
38.0047505938       -2.34075210817
38.5048131016       -2.47812424214
39.0048756095       -2.61440726636
39.5049381173       -2.7467011205
40.0050006251       -2.87164390238
40.5050631329       -2.98553141758
41.0051256407       -3.08451088263
41.5051881485       -3.16484285313
42.0052506563       -3.22320858034
42.5053131641       -3.25702322233
43.005375672       -3.2647045827
43.5054381798       -3.24584787443
44.0055006876       -3.20127163851
44.5055631954       -3.13292533353
45.0056257032       -3.04367754848
45.505688211       -2.93702618431
46.0057507188       -2.81678192847
46.5058132267       -2.68677274076
47.0058757345       -2.55060355502
47.5059382423       -2.41148798572
48.0060007501       -2.27215299591
48.5060632579       -2.1348064631
49.0061257657       -2.00115211834
49.5061882735       -1.87243546051
50.0062507813       -1.74950629268
50.5063132892       -1.63288688976
51.006375797       -1.52283833369
51.5064383048       -1.41942059445
52.0065008126       -1.32254424311
52.5065633204       -1.23201325783
53.0066258282       -1.1475593468
53.506688336       -1.06886872114
54.0067508439       -0.995602453678
54.5068133517       -0.927411573045
55.0068758595       -0.863947951954
55.5069383673       -0.804871909993
56.0070008751       -0.749857299908
56.5070633829       -0.698594701306
57.0071258907       -0.650793216793
57.5071883985       -0.606181256153
58.0072509064       -0.564506604333
58.5073134142       -0.525535996891
59.007375922       -0.489054369879
59.5074384298       -0.45486390708
60.0075009376       -0.42278297383
60.5075634454       -0.39264500108
61.0076259532       -0.364297364216
61.5076884611       -0.337600286875
62.0077509689       -0.312425789549
62.5078134767       -0.288656695129
63.0078759845       -0.266185698096
63.5079384923       -0.244914500163
64.0080010001       -0.224753012536
64.5080635079       -0.205618623113
65.0081260158       -0.18743552582
65.5081885236       -0.170134108542
66.0082510314       -0.153650395743
66.5083135392       -0.137925541731
67.008376047       -0.122905370505
67.5084385548       -0.108539958283
68.0085010626       -0.094783254946
68.5085635704       -0.08159274089
69.0086260783       -0.0689291160075
69.5086885861       -0.0567560177788
70.0087510939       -0.0450397656939
70.5088136017       -0.0337491294752
71.0088761095       -0.0228551187947
71.5089386173       -0.0123307923952
72.0090011251       -0.00215108472294
72.509063633       0.00770735163704
73.0091261408       0.0172662892653
73.5091886486       0.0265460563422
74.0092511564       0.0355656554629
74.5093136642       0.0443428719604
75.009376172       0.0528943727501
75.5094386798       0.0612357966084
76.0095011876       0.0693818367059
76.5095636955       0.077346316134
77.0096262033       0.0851422570902
77.5096887111       0.0927819443211
78.0097512189       0.100276983362
78.5098137267       0.107638354061
79.0098762345       0.114876459825
79.5099387423       0.122001172982
80.0100012502       0.129021876627
80.510063758       0.135947503256
81.0101262658       0.142786570505
81.5101887736       0.14954721424
82.0102512814       0.156237219241
82.5103137892       0.162864047715
83.010376297       0.169434865807
83.5104388049       0.17595656832
84.0105013127       0.182435801782
84.5105638205       0.188878986029
85.0106263283       0.195292334431
85.5106888361       0.201681872882
86.0107513439       0.208053457687
86.5108138517       0.214412792424
87.0108763595       0.220765443905
87.5109388674       0.227116857304
88.0110013752       0.233472370548
88.511063883       0.23983722804
89.0111263908       0.246216593788
89.5111888986       0.252615564003
90.0112514064       0.259039179236
90.5113139142       0.265492436096
91.0113764221       0.271980298622
91.5114389299       0.278507709348
92.0115014377       0.285079600115
92.5115639455       0.291700902671
93.0116264533       0.298376559117
93.5116889611       0.305111532226
94.0117514689       0.311910815688
94.5118139767       0.318779444314
95.0118764846       0.325722504251
95.5119389924       0.332745143233
96.0120015002       0.339852580917
96.512064008       0.347050119344
97.0121265158       0.35434315355
97.5121890236       0.361737182395
98.0122515314       0.369237819616
98.5123140393       0.376850805179
99.0123765471       0.384582016943
99.5124390549       0.392437482707
100.012501563       0.40042339266
100.512564071       0.408546112307
101.012626578       0.416812195903
101.512689086       0.42522840045
102.012751594       0.433801700321
102.512814102       0.442539302565
103.01287661       0.451448662951
103.512939117       0.460537502824
104.013001625       0.469813826838
104.513064133       0.479285941644
105.013126641       0.488962475622
105.513189149       0.498852399722
106.013251656       0.50896504953
106.513314164       0.519310148652
107.013376672       0.529897833514
107.51343918       0.540738679714
108.013501688       0.551843730032
108.513564196       0.563224524255
109.013626703       0.574893130944
109.513689211       0.586862181324
110.013751719       0.59914490546
110.513814227       0.611755170911
111.013876735       0.624707524069
111.513939242       0.638017234411
112.01400175       0.651700341905
112.514064258       0.665773707841
113.014126766       0.680255069382
113.514189274       0.695163098146
114.014251781       0.710517463176
114.514314289       0.726338898688
115.014376797       0.742649276996
115.514439305       0.759471687097
116.014501813       0.776830519408
116.514564321       0.794751557216
117.014626828       0.813262075448
117.514689336       0.832390947435
118.014751844       0.852168760411
118.514814352       0.872627940553
119.01487686       0.893802888479
119.514939367       0.915730126172
120.015001875       0.938448456446
120.515064383       0.961999136149
121.015126891       0.986426064454
121.515189399       1.01177598771
122.015251906       1.0380987225
122.515314414       1.06544739871
123.015376922       1.09387872467
123.51543943       1.12345327648
124.015501938       1.15423581423
124.515564446       1.18629562761
125.015626953       1.21970691412
125.515689461       1.25454919331
126.015751969       1.29090776068
126.515814477       1.32887418563
127.015876985       1.36854685797
127.515939492       1.41003158829
128.016002       1.45344226789
128.516064508       1.49890159477
129.016127016       1.54654187266
129.516189524       1.5965058911
130.016252032       1.64894789522
130.516314539       1.70403465498
131.016377047       1.76194664431
131.516439555       1.82287934212
132.016502063       1.88704466777
132.516564571       1.95467256516
133.016627078       2.0260127505
133.516689586       2.10133664009
134.016752094       2.18093947558
134.516814602       2.26514266481
135.01687711       2.35429635731
135.516939617       2.44878227324
136.017002125       2.54901680435
136.517064633       2.65545440371
137.017127141       2.7685912779
137.517189649       2.88896939045
138.017252157       3.01718077692
138.517314664       3.15387216053
139.017377172       3.29974983964
139.51743968       3.45558479419
140.017502188       3.62221792374
140.517564696       3.80056528297
141.017627203       3.99162311645
141.517689711       4.19647240787
142.017752219       4.41628254427
142.517814727       4.65231354305
143.017877235       4.90591609101
143.517939742       5.17852838749
144.01800225       5.47166845671
144.518064758       5.78692018564
145.018127266       6.12591084377
145.518189774       6.49027725008
146.018252282       6.88161708188
146.518314789       7.30142111186
147.018377297       7.75098149713
147.518439805       8.23127077788
148.018502313       8.74278622474
148.518564821       9.28535497818
149.018627328       9.85789758254
149.518689836       10.4581517022
150.018752344       11.0823647607
150.518814852       11.7249745751
151.01887736       12.3783108725
151.518939867       13.0323669024
152.019002375       13.6747064424
152.519064883       14.2905822475
153.019127391       14.8633401555
153.519189899       15.3751606867
154.019252407       15.8081418379
154.519314914       16.145655062
155.019377422       16.3738246498
155.51943993       16.4829134795
156.019502438       16.4683738455
156.519564946       16.3313602181
157.019627453       16.0785991958
157.519689961       15.7216435494
158.019752469       15.2756602408
158.519814977       14.7579786548
159.019877485       14.1866374479
159.519939992       13.5791239002
160.0200025       12.9514231914
160.520065008       12.3174148426
161.020127516       11.6885903051
161.520190024       11.0740280499
162.020252532       10.4805491843
162.520315039       9.91298075703
163.020377547       9.37446755601
163.520440055       8.866789853
164.020502563       8.39066009064
164.520565071       7.9459839796
165.020627578       7.53208040798
165.520690086       7.14786033117
166.020752594       6.79196810123
166.520815102       6.46289024207
167.02087761       6.15903709866
167.520940118       5.87880255467
168.021002625       5.62060644506
168.521065133       5.38292359553
169.021127641       5.16430272031
169.521190149       4.96337776789
170.021252657       4.77887374896
170.521315164       4.60960861777
171.021377672       4.45449240352
171.52144018       4.31252449042
172.021502688       4.18278971298
172.521565196       4.06445375402
173.021627703       3.95675819644
173.521690211       3.85901547734
174.021752719       3.77060391628
174.521815227       3.69096293306
175.021877735       3.61958852885
175.521940243       3.55602907501
176.02200275       3.49988143254
176.522065258       3.45078741045
177.022127766       3.40843056144
177.522190274       3.37253330664
178.022252782       3.34285437749
178.522315289       3.31918656042
179.022377797       3.30135472957
179.522440305       3.28921415251
180.022502813       3.28264905521
180.522565321       3.28157143334
181.022627828       3.28592009868
181.522690336       3.29565995131
182.022752844       3.31078146973
182.522815352       3.3313004136
183.02287786       3.35725773521
183.522940368       3.38871969833
184.023002875       3.42577820508
184.523065383       3.46855133347
185.023127891       3.51718409084
185.523190399       3.5718493905
186.023252907       3.63274926137
186.523315414       3.70011630294
187.023377922       3.77421540052
187.52344043       3.85534571855
188.023502938       3.9438429926
188.523565446       4.04008214387
189.023627953       4.14448024312
189.523690461       4.25749985439
190.023752969       4.37965279243
190.523815477       4.51150433096
191.023877985       4.65367790281
191.523940493       4.80686033572
192.024003       4.97180767096
192.524065508       5.14935161384
193.024128016       5.34040666639
193.524190524       5.54597799188
194.024253032       5.76717005811
194.524315539       6.00519609973
195.024378047       6.2613884284
195.524440555       6.53720960176
196.024503063       6.83426443389
196.524565571       7.15431278974
197.024628079       7.49928304742
197.524690586       7.8712860307
198.024753094       8.27262910054
198.524815602       8.70582993937
199.02487811       9.17362935163
199.524940618       9.67900212218
200.025003125       10.2251645995
200.525065633       10.8155771781
201.025128141       11.4539392126
201.525190649       12.1441730751
202.025253157       12.8903930225
202.525315664       13.6968532545
203.025378172       14.5678679773
203.52544068       15.5076944729
204.025503188       16.5203681531
204.525565696       17.6094765231
205.025628204       18.7778571997
205.525690711       20.027204149
206.025753219       21.3575670078
206.525815727       22.7667319682
207.025878235       24.2494809715
207.525940743       25.7967409366
208.02600325       27.3946585593
208.526065758       29.0236702522
209.026128266       30.6576804043
209.526190774       32.2635097933
210.026253282       33.8008192248
210.526315789       35.2227338966
211.026378297       36.4773688572
211.526440805       37.510363663
212.026503313       38.2683661014
212.526565821       38.7031784987
213.026628329       38.7760482274
213.526690836       38.4614261019
214.026753344       37.7495104118
214.526815852       36.647076818
215.02687836       35.1764309256
215.526940868       33.3727106502
216.027003375       31.2800848273
216.527065883       28.9475502493
217.027128391       26.4249980769
217.527190899       23.7600470212
218.027253407       20.9959051169
218.527315914       18.1703005463
219.027378422       15.3153614748
219.52744093       12.4582372231
220.027503438       9.62222547151
220.527565946       6.82817891342
221.027628454       4.09598706256
221.527690961       1.44594928114
222.027753469       -1.10013224324
222.527815977       -3.51830212741
223.027878485       -5.78239024537
223.527940993       -7.8646454124
224.0280035       -9.73709342101
224.528066008       -11.3735301367
225.028128516       -12.7519159395
225.528191024       -13.8568040915
226.028253532       -14.6813625483
226.52831604       -15.2285789103
227.028378547       -15.5113825026
227.528441055       -15.5516419506
228.028503563       -15.3782319203
228.528566071       -15.0245347077
229.028628579       -14.5258050245
229.528691086       -13.9167783489
230.028753594       -13.2297808685
230.528816102       -12.4934533933
231.02887861       -11.7320757444
231.528941118       -10.9653949882
232.029003625       -10.2088234658
232.529066133       -9.47387105132
233.029128641       -8.76869623657
233.529191149       -8.09868967553
234.029253657       -7.46703289311
234.529316165       -6.87519926506
235.029378672       -6.32338250973
235.52944118       -5.81085006607
236.029503688       -5.33622598579
236.529566196       -4.89771166726
237.029628704       -4.49325409513
237.529691211       -4.12067115605
238.029753719       -3.77774273816
238.529816227       -3.46227512496
239.029878735       -3.17214492593
239.529941243       -2.90532759187
240.03000375       -2.65991451143
240.530066258       -2.43412179818
241.030128766       -2.2262931523
241.530191274       -2.03489860104
242.030253782       -1.85853046633
242.53031629       -1.69589755466
243.030378797       -1.5458182942
243.530441305       -1.40721333912
244.030503813       -1.27909800717
244.530566321       -1.1605748023
245.030628829       -1.05082618966
245.530691336       -0.949107728921
246.030753844       -0.854741627447
246.530816352       -0.767110743415
247.03087886       -0.685653046943
247.530941368       -0.609856532371
248.031003875       -0.539254564962
248.531066383       -0.473421639161
249.031128891       -0.411969522075
249.531191399       -0.354543754248
250.031253907       -0.300820479448
250.531316415       -0.25050357582
251.031378922       -0.203322061838
251.53144143       -0.159027752011
252.031503938       -0.117393138957
252.531566446       -0.0782094802241
253.031628954       -0.0412850700084
253.531691461       -0.00644367761301
254.031753969       0.0264768638441
254.531816477       0.0576259334427
255.031878985       0.0871412767219
255.531941493       0.115150050403
256.032004001       0.141769768578
256.532066508       0.167109160257
257.032129016       0.191268947192
257.532191524       0.214342549962
258.032254032       0.236416729514
258.53231654       0.257572170615
259.032379047       0.277884013007
259.532441555       0.297422335473
260.032504063       0.316252597493
260.532566571       0.334436042701
261.032629079       0.352030067916
261.532691586       0.369088561159
262.032754094       0.385662211721
262.532816602       0.401798795052
263.03287911       0.417543434958
263.532941618       0.432938845375
264.033004126       0.448025553752
264.533066633       0.462842107901
265.033129141       0.477425267993
265.533191649       0.491810185231
266.033254157       0.506030568598
266.533316665       0.520118840949
267.033379172       0.534106285636
267.53344168       0.548023184718
268.033504188       0.561898949781
268.533566696       0.575762246266
269.033629204       0.589641112184
269.533691711       0.603563072026
270.033754219       0.617555246612
270.533816727       0.631644459626
271.033879235       0.645857341512
271.533941743       0.660220431398
272.034004251       0.674760277705
272.534066758       0.689503538064
273.034129266       0.70447707917
273.534191774       0.719708077199
274.034254282       0.73522411941
274.53431679       0.751053307585
