#  x                 y             frequency           rot. str.
0.0      -0.0244608805248      36.94      1.95
0.500062507813      -0.0229103214386      97.95      -8.27
1.00012501563      -0.0212786408125      211.29      -2.48
1.50018752344      -0.0195612788058      265.65      -21.52
2.00025003125      -0.0177533723248      278.84      -22.94
2.50031253907      -0.0158497314222      345.16      19.93
3.00037504688      -0.013844813594      374.77      -46.41
3.50043755469      -0.0117326957663      481.25      23.69
4.00050006251      -0.0095070437397      506.55      -49.46
4.50056257032      -0.00716107883333      593.25      -3.68
5.00062507813      -0.00468754144415      662.05      17.57
5.50068758595      -0.00207865120415      742.32      0.91
6.00075009376      0.000673936616328      835.93      -47.36
6.50081260158      0.00357917885042      895.06      88.92
7.00087510939      0.00664669675613      917.18      62.67
7.5009376172      0.00988683340057      1007.37      -139.30
8.00100012502      0.0133107166443      1049.20      -50.25
8.50106263283      0.0169303283227      1124.87      -88.00
9.00112514064      0.0207585802883      1144.18      167.38
9.50118764846      0.0248093980515      1188.62      -27.45
10.0012501563      0.0290978128382      1262.97      -6.00
10.5013126641      0.0336400629736      1301.80      3.88
11.0013751719      0.0384537055975      1358.18      -8.47
11.5014376797      0.0435577398266      1385.19      -1.04
12.0015001875      0.0489727425939      1392.66      8.91
12.5015626953      0.054721018519      1412.28      5.04
13.0016252032      0.0608267653003      1497.50      -3.94
13.501687711      0.0673162562532      1670.89      20.94
14.0017502188      0.0742180417698      1814.60      17.97
14.5018127266      0.0815631716094      2994.49      1.76
15.0018752344      0.0893854400752      3055.98      7.96
15.5019377422      0.0977216562485      3110.55      2.68
16.00200025      0.106611941551      3484.41      -0.19
16.5020627578      0.116100056954      3556.18      -0.46
17.0021252657      0.12623376214      3712.37      0.46
17.5021877735      0.137065208799      3796.80      -6.46
18.0022502813       0.148651369977
18.5023127891       0.161054506923
19.0023752969       0.174342674115
19.5024378047       0.188590261983
20.0025003125       0.203878575125
20.5025628204       0.220296441356
21.0026253282       0.237940843492
21.502687836       0.256917560921
22.0027503438       0.277341801493
22.5028128516       0.299338795312
23.0028753594       0.323044310062
23.5029378672       0.348605031609
24.003000375       0.376178732698
24.5030628829       0.40593412538
25.0031253907       0.438050257874
25.5031878985       0.472715272465
26.0032504063       0.510124286331
26.5033129141       0.550476091272
27.0033754219       0.59396829144
27.5034379297       0.640790413402
28.0035004376       0.691114436973
28.5035629454       0.745082121716
29.0036254532       0.802788466007
29.503687961       0.864260669861
30.0037504688       0.929432133285
30.5038129766       0.998111381558
31.0038754844       1.06994645519
31.5039379922       1.14438632324
32.0040005001       1.22064232922
32.5040630079       1.29765452542
33.0041255157       1.3740697914
33.5041880235       1.44824041218
34.0042505313       1.51825256423
34.5043130391       1.58199296381
35.0043755469       1.63725788042
35.5044380548       1.68190148722
36.0045005626       1.71401093201
36.5045630704       1.73208585339
37.0046255782       1.73519370384
37.504688086       1.72307239467
38.0047505938       1.69615982999
38.5048131016       1.65554423303
39.0048756095       1.60284546271
39.5049381173       1.54005055786
40.0050006251       1.46933278237
40.5050631329       1.39288167866
41.0051256407       1.31276407888
41.5051881485       1.23082608796
42.0052506563       1.14863691396
42.5053131641       1.06746898815
43.005375672       0.988305568238
43.5054381798       0.911866428563
44.0055006876       0.838643359962
44.5055631954       0.768939109296
45.0056257032       0.702905410501
45.505688211       0.640577514377
46.0057507188       0.581903962273
46.5058132267       0.526771265521
47.0058757345       0.475023715918
47.5059382423       0.42647885279
48.0060007501       0.380939233849
48.5060632579       0.338201168253
49.0061257657       0.298061020175
49.5061882735       0.260319612688
50.0062507813       0.224785175184
50.5063132892       0.191275194359
51.006375797       0.159617454587
51.5064383048       0.129650490501
52.0065008126       0.101223622736
52.5065633204       0.0741967061777
53.0066258282       0.0484396872749
53.506688336       0.0238320415301
54.0067508439       0.000262142764643
54.5068133517       -0.0223733990363
55.0068758595       -0.0441704056
55.5069383673       -0.0652177865276
56.0070008751       -0.085598172388
56.5070633829       -0.105388517821
57.0071258907       -0.124660670921
57.5071883985       -0.143481907429
58.0072509064       -0.161915429859
58.5073134142       -0.180020832718
59.007375922       -0.197854535734
59.5074384298       -0.215470187417
60.0075009376       -0.23291904154
60.5075634454       -0.250250309258
61.0076259532       -0.267511489614
61.5076884611       -0.284748681177
62.0077509689       -0.302006877476
62.5078134767       -0.319330248854
63.0078759845       -0.336762413259
63.5079384923       -0.35434669845
64.0080010001       -0.372126397987
64.5080635079       -0.390145023368
65.0081260158       -0.408446554607
65.5081885236       -0.427075691541
66.0082510314       -0.446078108181
66.5083135392       -0.465500712406
67.008376047       -0.485391913405
67.5084385548       -0.505801899298
68.0085010626       -0.52678292752
68.5085635704       -0.548389630644
69.0086260783       -0.570679340521
69.5086885861       -0.593712433778
70.0087510939       -0.617552701969
70.5088136017       -0.642267749922
71.0088761095       -0.667929426143
71.5089386173       -0.694614289467
72.0090011251       -0.722404116538
72.509063633       -0.751386455117
73.0091261408       -0.781655228686
73.5091886486       -0.81331139833
74.0092511564       -0.846463688392
74.5093136642       -0.881229383019
75.009376172       -0.917735201237
75.5094386798       -0.956118258864
76.0095011876       -0.996527126059
76.5095636955       -1.03912298988
77.0096262033       -1.08408093157
77.5096887111       -1.13159132853
78.0097512189       -1.18186139081
78.5098137267       -1.23511684151
79.0098762345       -1.29160374932
79.5099387423       -1.35159051935
80.0100012502       -1.41537004529
80.510063758       -1.48326202089
81.0101262658       -1.55561540156
81.5101887736       -1.63281099644
82.0102512814       -1.71526415663
82.5103137892       -1.80342750498
83.010376297       -1.89779362494
83.5104388049       -1.99889758829
84.0105013127       -2.10731915072
84.5105638205       -2.22368437735
85.0106263283       -2.34866637096
85.5106888361       -2.48298466146
86.0107513439       -2.62740266619
86.5108138517       -2.78272244459
87.0108763595       -2.94977573857
87.5109388674       -3.1294100106
88.0110013752       -3.32246786586
88.511063883       -3.52975788526
89.0111263908       -3.75201453188
89.5111888986       -3.98984448095
90.0112514064       -4.24365656132
90.5113139142       -4.51357264011
91.0113764221       -4.79931745954
91.5114389299       -5.10008695582
92.0115014377       -5.41439732413
92.5115639455       -5.73992141533
93.0116264533       -6.07332519331
93.5116889611       -6.4101248062
94.0117514689       -6.7445934764
94.5118139767       -7.06975497365
95.0118764846       -7.37750374179
95.5119389924       -7.65888673678
96.0120015002       -7.90456491486
96.512064008       -8.10544170149
97.0121265158       -8.25340513977
97.5121890236       -8.34208942056
98.0122515314       -8.36753441082
98.5123140393       -8.32862229211
99.0123765471       -8.22720441718
99.5124390549       -8.06789220259
100.012501563       -7.85755499546
100.512564071       -7.60462326366
101.012626578       -7.31832121788
101.512689086       -7.00794562914
102.012751594       -6.68227563566
102.512814102       -6.3491562102
103.01287661       -6.01525916181
103.512939117       -5.68599819884
104.013001625       -5.3655607412
104.513064133       -5.05701662281
105.013126641       -4.76246854797
105.513189149       -4.48321724431
106.013251656       -4.21992283341
106.513314164       -3.97275139172
107.013376672       -3.74150135736
107.51343918       -3.52570833447
108.013501688       -3.32472924219
108.513564196       -3.13780803337
109.013626703       -2.96412572671
109.513689211       -2.80283754565
110.013751719       -2.65309974526
110.513814227       -2.51408837596
111.013876735       -2.38501186606
111.513939242       -2.26511895148
112.01400175       -2.15370316693
112.514064258       -2.05010484468
113.014126766       -1.9537113475
113.514189274       -1.86395608526
114.014251781       -1.78031672584
114.514314289       -1.7023129028
115.014376797       -1.62950363947
115.514439305       -1.56148464641
116.014501813       -1.497885602
116.514564321       -1.43836749094
117.014626828       -1.38262004955
117.514689336       -1.33035934826
118.014751844       -1.28132552788
118.514814352       -1.23528069698
119.01487686       -1.19200699082
119.514939367       -1.15130478826
120.015001875       -1.1129910796
120.515064383       -1.07689797704
121.015126891       -1.04287135827
121.515189399       -1.01076963337
122.015251906       -0.980462625173
122.515314414       -0.951830553598
123.015376922       -0.924763114854
123.51543943       -0.899158646912
124.015501938       -0.874923373324
124.515564446       -0.851970718003
125.015626953       -0.830220684228
125.515689461       -0.809599291698
126.015751969       -0.790038066016
126.515814477       -0.771473575531
127.015876985       -0.75384701091
127.515939492       -0.737103803298
128.016002       -0.721193277297
128.516064508       -0.706068335378
129.016127016       -0.691685170703
129.516189524       -0.678003005587
130.016252032       -0.664983853148
130.516314539       -0.652592299929
131.016377047       -0.640795307488
131.516439555       -0.629562031164
132.016502063       -0.618863654403
132.516564571       -0.608673237192
133.016627078       -0.598965577292
133.516689586       -0.589717083084
134.016752094       -0.580905656972
134.516814602       -0.572510588386
135.01687711       -0.564512455515
135.516939617       -0.556893034986
136.017002125       -0.549635218803
136.517064633       -0.542722937879
137.017127141       -0.536141091616
137.517189649       -0.529875482983
138.017252157       -0.523912758644
138.517314664       -0.518240353687
139.017377172       -0.512846440582
139.51743968       -0.507719882005
140.017502188       -0.502850187214
140.517564696       -0.498227471676
141.017627203       -0.493842419703
141.517689711       -0.489686249822
142.017752219       -0.485750682693
142.517814727       -0.482027911358
143.017877235       -0.478510573638
143.517939742       -0.475191726516
144.01800225       -0.472064822361
144.518064758       -0.469123686839
145.018127266       -0.466362498394
145.518189774       -0.463775769191
146.018252282       -0.461358327392
146.518314789       -0.459105300693
147.018377297       -0.457012101021
147.518439805       -0.455074410307
148.018502313       -0.453288167271
148.518564821       -0.45164955514
149.018627328       -0.450154990249
149.518689836       -0.448801111451
150.018752344       -0.447584770307
150.518814852       -0.446503021979
151.01887736       -0.445553116818
151.518939867       -0.44473249257
152.019002375       -0.44403876719
152.519064883       -0.443469732225
153.019127391       -0.443023346726
153.519189899       -0.442697731675
154.019252407       -0.442491164896
154.519314914       -0.442402076425
155.019377422       -0.442429044325
155.51943993       -0.44257079093
156.019502438       -0.442826179489
156.519564946       -0.443194211221
157.019627453       -0.443674022736
157.519689961       -0.444264883849
158.019752469       -0.444966195747
158.519814977       -0.445777489526
159.019877485       -0.446698425081
159.519939992       -0.447728790344
160.0200025       -0.448868500885
160.520065008       -0.450117599857
161.020127516       -0.4514762583
161.520190024       -0.452944775805
162.020252532       -0.454523581538
162.520315039       -0.456213235643
163.020377547       -0.458014431024
163.520440055       -0.459927995524
164.020502563       -0.461954894503
164.520565071       -0.464096233854
165.020627578       -0.466353263448
165.520690086       -0.468727381051
166.020752594       -0.471220136719
166.520815102       -0.473833237718
167.02087761       -0.476568553976
167.520940118       -0.479428124114
168.021002625       -0.482414162095
168.521065133       -0.485529064521
169.021127641       -0.488775418633
169.521190149       -0.492156011056
170.021252657       -0.495673837352
170.521315164       -0.49933211244
171.021377672       -0.503134281949
171.52144018       -0.507084034574
172.021502688       -0.511185315533
172.521565196       -0.515442341197
173.021627703       -0.519859615007
173.521690211       -0.524441944784
174.021752719       -0.529194461553
174.521815227       -0.534122640023
175.021877735       -0.539232320861
175.521940243       -0.544529734941
176.02200275       -0.550021529738
176.522065258       -0.555714798075
177.022127766       -0.561617109453
177.522190274       -0.567736544197
178.022252782       -0.57408173072
178.522315289       -0.580661886178
179.022377797       -0.587486860887
179.522440305       -0.594567186858
180.022502813       -0.601914130882
180.522565321       -0.609539752615
181.022627828       -0.617456968198
181.522690336       -0.625679619975
182.022752844       -0.634222552949
182.522815352       -0.643101698692
183.02287786       -0.652334167493
183.522940368       -0.66193834962
184.023002875       -0.67193402668
184.523065383       -0.682342494144
185.023127891       -0.693186696259
185.523190399       -0.704491374644
186.023252907       -0.716283232077
186.523315414       -0.728591113058
187.023377922       -0.741446202961
187.52344043       -0.754882247716
188.023502938       -0.768935796163
188.523565446       -0.783646467394
189.023627953       -0.799057245588
189.523690461       -0.815214805004
190.023752969       -0.832169867957
190.523815477       -0.849977598683
191.023877985       -0.868698036075
191.523940493       -0.888396568169
192.024003       -0.909144451092
192.524065508       -0.931019374728
193.024128016       -0.954106076676
193.524190524       -0.978497004926
194.024253032       -1.00429302798
194.524315539       -1.0316041887
195.024378047       -1.06055049454
195.524440555       -1.09126273216
196.024503063       -1.12388328712
196.524565571       -1.15856694067
197.024628079       -1.19548160257
197.524690586       -1.23480892235
198.024753094       -1.2767446992
198.524815602       -1.32149898134
199.02487811       -1.36929570819
199.524940618       -1.42037170033
200.025003125       -1.47497474158
200.525065633       -1.53336042346
201.025128141       -1.595787333
201.525190649       -1.66251006345
202.025253157       -1.73376941761
202.525315664       -1.8097790672
203.025378172       -1.89070784967
203.52544068       -1.97665686084
204.025503188       -2.0676305914
204.525565696       -2.16350163537
205.025628204       -2.26396906742
205.525690711       -2.3685115608
206.025753219       -2.47633779918
206.525815727       -2.58633876709
207.025878235       -2.69704897998
207.525940743       -2.80662627908
208.02600325       -2.91286176482
208.526065758       -3.01323170969
209.026128266       -3.10500063124
209.526190774       -3.18537815074
210.026253282       -3.2517218268
210.526315789       -3.30176550973
211.026378297       -3.33384140236
211.526440805       -3.34705837978
212.026503313       -3.3414027448
212.526565821       -3.31774101735
213.026628329       -3.27772418539
213.526690836       -3.22361285801
214.026753344       -3.15805665336
214.526815852       -3.08386533106
215.02687836       -3.00380397702
215.526940868       -2.92043338394
216.027003375       -2.83600409316
216.527065883       -2.75240194685
217.027128391       -2.67113622053
217.527190899       -2.59335855377
218.027253407       -2.51990103664
218.527315914       -2.45132369716
219.027378422       -2.38796418712
219.52744093       -2.32998495695
220.027503438       -2.27741526985
220.527565946       -2.23018691756
221.027628454       -2.18816349918
221.527690961       -2.15116371313
222.027753469       -2.11897940505
222.527815977       -2.09138921213
223.027878485       -2.06816862635
223.527940993       -2.0490972188
224.0280035       -2.03396366208
224.528066008       -2.0225690776
225.028128516       -2.01472913261
225.528191024       -2.01027522207
226.028253532       -2.00905499523
226.52831604       -2.01093242594
227.028378547       -2.01578757657
227.528441055       -2.02351616747
228.028503563       -2.03402903431
228.528566071       -2.04725153339
229.028628579       -2.06312293763
229.528691086       -2.08159585395
230.028753594       -2.10263568287
230.528816102       -2.12622013474
231.02887861       -2.15233881217
231.528941118       -2.18099286453
232.029003625       -2.21219471863
232.529066133       -2.24596788775
233.029128641       -2.28234686043
233.529191149       -2.32137707028
234.029253657       -2.36311494764
234.529316165       -2.4076280543
235.029378672       -2.4549953028
235.52944118       -2.50530726248
236.029503688       -2.5586665548
236.529566196       -2.61518834166
237.029628704       -2.67500091081
237.529691211       -2.7382463638
238.029753719       -2.80508141261
238.529816227       -2.87567829239
239.029878735       -2.95022579897
239.529941243       -3.02893046084
240.03000375       -3.1120178569
240.530066258       -3.19973409278
241.030128766       -3.29234744987
241.530191274       -3.39015022301
242.030253782       -3.49346076465
242.53031629       -3.60262575481
243.030378797       -3.71802271817
243.530441305       -3.84006281142
244.030503813       -3.96919390559
244.530566321       -4.10590398954
245.030628829       -4.25072492189
245.530691336       -4.40423655906
246.030753844       -4.56707128647
246.530816352       -4.73991897825
247.03087886       -4.92353240659
247.530941368       -5.11873311533
248.031003875       -5.32641776181
248.531066383       -5.5475649147
249.031128891       -5.78324227254
249.531191399       -6.03461423445
250.031253907       -6.30294970783
250.531316415       -6.58962997406
251.031378922       -6.89615634579
251.53144143       -7.22415723131
252.031503938       -7.57539406438
252.531566446       -7.95176534968
253.031628954       -8.35530780197
253.531691461       -8.78819320588
254.031753969       -9.25271917652
254.531816477       -9.75129144267
255.031878985       -10.2863945938
255.531941493       -10.8605474269
256.032004001       -11.4762381222
256.532066508       -12.1358335204
257.032129016       -12.8414558938
257.532191524       -13.5948200032
258.032254032       -14.3970232669
258.53231654       -15.2482830492
259.032379047       -16.1476181468
259.532441555       -17.0924774126
260.032504063       -18.0783281233
260.532566571       -19.0982309526
261.032629079       -20.142447334
261.532691586       -21.198147136
262.032754094       -22.2493060181
262.532816602       -23.2768955037
263.03287911       -24.2594647349
263.532941618       -25.1741804252
264.033004126       -25.9983241079
264.533066633       -26.7111472331
265.033129141       -27.2958743265
265.533191649       -27.7415562305
266.033254157       -28.0444475591
266.533316665       -28.208639594
267.033379172       -28.2458166924
267.53344168       -28.17418242
268.033504188       -28.0167640229
268.533566696       -27.7994005799
269.033629204       -27.5487298236
269.533691711       -27.2904234314
270.033754219       -27.0478149393
270.533816727       -26.8409563029
271.033879235       -26.686055643
