#  x                 y             frequency           rot. str.
0.0      -0.108340033909      67.38      -16.61
0.500062507813      -0.111073110438      151.04      0.94
1.00012501563      -0.113876709149      194.38      89.15
1.50018752344      -0.116753032888      218.41      -15.19
2.00025003125      -0.119704367988      308.52      -0.50
2.50031253907      -0.122733088037      327.42      13.14
3.00037504688      -0.125841657837      385.02      -10.47
3.50043755469      -0.129032637575      399.13      -21.83
4.00050006251      -0.132308687213      517.79      -10.61
4.50056257032      -0.135672571118      611.67      -36.44
5.00062507813      -0.13912716294      640.55      47.62
5.50068758595      -0.142675450753      758.11      25.58
6.00075009376      -0.146320542477      789.47      -23.13
6.50081260158      -0.150065671611      809.87      -17.04
7.00087510939      -0.153914203265      974.41      -12.10
7.5009376172      -0.157869640549      1049.36      -4.72
8.00100012502      -0.161935631311      1069.59      16.60
8.50106263283      -0.166115975263      1123.00      -29.36
9.00112514064      -0.170414631513      1149.53      40.17
9.50118764846      -0.174835726535      1206.80      -11.70
10.0012501563      -0.179383562604      1227.48      -79.08
10.5013126641      -0.184062626716      1298.44      4.65
11.0013751719      -0.188877600054      1326.13      -16.13
11.5014376797      -0.193833367997      1368.74      6.75
12.0015001875      -0.198935030746      1417.86      83.39
12.5015626953      -0.204187914591      1442.56      -16.08
13.0016252032      -0.209597583855      1506.64      -0.56
13.501687711      -0.21516985359      1640.75      -40.40
14.0017502188      -0.220910803047      1821.12      15.44
14.5018127266      -0.226826789996      2977.06      5.50
15.0018752344      -0.23292446595      3033.37      16.16
15.5019377422      -0.239210792352      3074.39      -4.21
16.00200025      -0.245693057806      3505.18      5.00
16.5020627578      -0.252378896419      3591.35      -1.51
17.0021252657      -0.259276307346      3715.73      -0.84
17.5021877735      -0.266393675613      3772.45      -7.00
18.0022502813       -0.273739794329
18.5023127891       -0.281323888383
19.0023752969       -0.289155639743
19.5024378047       -0.297245214477
20.0025003125       -0.305603291634
20.5025628204       -0.314241094129
21.0026253282       -0.323170421786
21.502687836       -0.332403686723
22.0027503438       -0.341953951248
22.5028128516       -0.351834968493
23.0028753594       -0.362061225987
23.5029378672       -0.372647992429
24.003000375       -0.383611367915
24.5030628829       -0.394968337922
25.0031253907       -0.406736831348
25.5031878985       -0.418935782976
26.0032504063       -0.431585200733
26.5033129141       -0.444706238163
27.0033754219       -0.458321272569
27.5034379297       -0.472453989335
28.0035004376       -0.487129472977
28.5035629454       -0.502374305526
29.0036254532       -0.518216672921
29.503687961       -0.534686480135
30.0037504688       -0.551815475863
30.5038129766       -0.569637387648
31.0038754844       -0.58818806844
31.5039379922       -0.607505655687
32.0040005001       -0.627630744135
32.5040630079       -0.648606573706
33.0041255157       -0.670479233888
33.5041880235       -0.693297886298
34.0042505313       -0.717115007207
34.5043130391       -0.741986652045
35.0043755469       -0.767972744086
35.5044380548       -0.795137389803
36.0045005626       -0.823549223613
36.5045630704       -0.853281785064
37.0046255782       -0.884413931831
37.504688086       -0.91703029229
38.0047505938       -0.951221761829
38.5048131016       -0.987086047554
39.0048756095       -1.02472826653
39.5049381173       -1.06426160331
40.0050006251       -1.10580803309
40.5050631329       -1.14949911763
41.0051256407       -1.19547688164
41.5051881485       -1.24389477857
42.0052506563       -1.29491875511
42.5053131641       -1.3487284253
43.005375672       -1.40551836572
43.5054381798       -1.46549954477
44.0055006876       -1.52890089993
44.5055631954       -1.59597107828
45.0056257032       -1.66698035682
45.505688211       -1.7422227601
46.0057507188       -1.82201839384
46.5058132267       -1.90671601405
47.0058757345       -1.99669585125
47.5059382423       -2.09237270954
48.0060007501       -2.19419935873
48.5060632579       -2.30267023568
49.0061257657       -2.4183254663
49.5061882735       -2.54175521306
50.0062507813       -2.67360434236
50.5063132892       -2.81457739061
51.006375797       -2.9654437863
51.5064383048       -3.12704325431
52.0065008126       -3.30029128621
52.5065633204       -3.4861845021
53.0066258282       -3.68580565067
53.506688336       -3.90032788827
54.0067508439       -4.13101783775
54.5068133517       -4.37923674329
55.0068758595       -4.64643879825
55.5069383673       -4.9341654162
56.0070008751       -5.24403382869
56.5070633829       -5.5777179155
57.0071258907       -5.93691859871
57.5071883985       -6.32332046731
58.0072509064       -6.73853057101
58.5073134142       -7.18399459608
59.007375922       -7.66088503542
59.5074384298       -8.16995569938
60.0075009376       -8.71135731452
60.5075634454       -9.28441050381
61.0076259532       -9.88733577352
61.5076884611       -10.5169460053
62.0077509689       -11.1683160991
62.5078134767       -11.8344572388
63.0078759845       -12.5060393233
63.5079384923       -13.1712224698
64.0080010001       -13.8156729611
64.5080635079       -14.422843932
65.0081260158       -14.9745881801
65.5081885236       -15.4521325197
66.0082510314       -15.8373782916
66.5083135392       -16.1144095628
67.008376047       -16.2710101488
67.5084385548       -16.2999421393
68.0085010626       -16.1997483191
68.5085635704       -15.9749176288
69.0086260783       -15.6353794578
69.5086885861       -15.1954302211
70.0087510939       -14.6723004465
70.5088136017       -14.0846133416
71.0088761095       -13.4509631257
71.5089386173       -12.7887727441
72.0090011251       -12.1135054876
72.509063633       -11.4382295046
73.0091261408       -10.7734828546
73.5091886486       -10.1273623427
74.0092511564       -9.50575668135
74.5093136642       -8.91265532054
75.009376172       -8.35048091965
75.5094386798       -7.82041050285
76.0095011876       -7.32266487456
76.5095636955       -6.85675679474
77.0096262033       -6.42169579829
77.5096887111       -6.01615201298
78.0097512189       -5.63858365583
78.5098137267       -5.28733377568
79.0098762345       -4.96070181808
79.5099387423       -4.65699511795
80.0100012502       -4.37456474062
80.510063758       -4.11182935358
81.0101262658       -3.86729011052
81.5101887736       -3.63953890936
82.0102512814       -3.42726186094
82.5103137892       -3.22923937571
83.010376297       -3.04434393125
83.5104388049       -2.87153631314
84.0105013127       -2.70986091213
84.5105638205       -2.5584404999
85.0106263283       -2.41647078447
85.5106888361       -2.2832149552
86.0107513439       -2.15799835969
86.5108138517       -2.04020340518
87.0108763595       -1.92926474116
87.5109388674       -1.82466475375
88.0110013752       -1.72592938442
88.511063883       -1.63262427267
89.0111263908       -1.54435121427
89.5111888986       -1.4607449206
90.0112514064       -1.38147006202
90.5113139142       -1.30621857591
91.0113764221       -1.23470721973
91.5114389299       -1.16667534933
92.0115014377       -1.10188290363
92.5115639455       -1.04010857734
93.0116264533       -0.98114816476
93.5116889611       -0.924813058861
94.0117514689       -0.870928890935
94.5118139767       -0.819334297465
95.0118764846       -0.769879801963
95.5119389924       -0.722426800631
96.0120015002       -0.676846641767
96.512064008       -0.633019789757
97.0121265158       -0.590835065431
97.5121890236       -0.550188955313
98.0122515314       -0.510984983077
98.5123140393       -0.473133137154
99.0123765471       -0.436549349063
99.5124390549       -0.40115501758
100.012501563       -0.366876574324
100.512564071       -0.333645086816
101.012626578       -0.301395895447
101.512689086       -0.270068281135
102.012751594       -0.239605160791
102.512814102       -0.209952807989
103.01287661       -0.181060596492
103.512939117       -0.152880764516
104.013001625       -0.125368197822
104.513064133       -0.0984802299142
105.013126641       -0.0721764577748
105.513189149       -0.046418571728
106.013251656       -0.0211701981557
106.513314164       0.00360324609975
107.013376672       0.0279346886955
107.51343918       0.0518555270708
108.013501688       0.0753957449212
108.513564196       0.0985840206606
109.013626703       0.121447828594
109.513689211       0.144013533468
110.013751719       0.166306479
110.513814227       0.188351070951
111.013876735       0.210170855255
111.513939242       0.231788591672
112.01400175       0.253226323415
112.514064258       0.27450544315
113.014126766       0.295646755756
113.514189274       0.316670538197
114.014251781       0.337596596844
114.514314289       0.358444322566
115.014376797       0.379232743891
115.514439305       0.399980578527
116.014501813       0.420706283525
116.514564321       0.441428104352
117.014626828       0.462164123147
117.514689336       0.482932306417
118.014751844       0.503750552447
118.514814352       0.524636738669
119.01487686       0.545608769289
119.514939367       0.566684623414
120.015001875       0.587882403994
120.515064383       0.609220387851
121.015126891       0.630717077122
121.515189399       0.65239125244
122.015251906       0.674262028199
122.515314414       0.69634891028
123.015376922       0.718671856642
123.51543943       0.741251341206
124.015501938       0.764108421504
124.515564446       0.787264810606
125.015626953       0.810742953876
125.515689461       0.834566111159
126.015751969       0.858758445066
126.515814477       0.883345116065
127.015876985       0.908352385169
127.515939492       0.933807725061
128.016002       0.959739940576
128.516064508       0.986179299529
129.016127016       1.01315767495
129.516189524       1.04070869981
130.016252032       1.06886793551
130.516314539       1.09767305515
131.016377047       1.12716404296
131.516439555       1.15738341101
132.016502063       1.18837643412
132.516564571       1.22019140395
133.016627078       1.25287990282
133.516689586       1.28649709701
134.016752094       1.321102049
134.516814602       1.35675804671
135.01687711       1.39353294613
135.516939617       1.43149952189
136.017002125       1.47073581705
136.517064633       1.51132547938
137.017127141       1.55335806595
137.517189649       1.59692929063
138.017252157       1.64214117929
138.517314664       1.68910208514
139.017377172       1.73792650053
139.51743968       1.78873458083
140.017502188       1.84165127098
140.517564696       1.89680489407
141.017627203       1.95432502548
141.517689711       2.01433943535
142.017752219       2.07696984099
142.517814727       2.14232617329
143.017877235       2.21049903924
143.517939742       2.28155007144
144.01800225       2.35549992045
144.518064758       2.43231379968
145.018127266       2.51188477739
145.518189774       2.5940154692
146.018252282       2.67839944734
146.518314789       2.76460454492
147.018377297       2.85206121255
147.518439805       2.94005998555
148.018502313       3.02776260745
148.518564821       3.11423097596
149.018627328       3.19847638377
149.518689836       3.27952829342
150.018752344       3.35651740015
150.518814852       3.42876298004
151.01887736       3.49585105885
151.518939867       3.55768939054
152.019002375       3.61452847565
152.519064883       3.66694436083
153.019127391       3.7157868353
153.519189899       3.76210335609
154.019252407       3.8070525928
154.519314914       3.85182123909
155.019377422       3.89755446464
155.51943993       3.94530566864
156.019502438       3.99600663921
156.519564946       4.05045586519
157.019627453       4.10932092591
157.519689961       4.17315041093
158.019752469       4.24239125452
158.519814977       4.31740825126
159.019877485       4.39850350176
159.519939992       4.48593441417
160.0200025       4.57992956875
160.520065008       4.6807022289
161.020127516       4.78846158053
161.520190024       4.90342194624
162.020252532       5.02581029286
162.520315039       5.15587236457
163.020377547       5.29387775519
163.520440055       5.44012419824
164.020502563       5.59494131391
164.520565071       5.75869401315
165.020627578       5.93178572501
165.520690086       6.11466158443
166.020752594       6.3078116945
166.520815102       6.51177455959
167.02087761       6.72714077259
167.520940118       6.95455703052
168.021002625       7.19473054693
168.521065133       7.4484339269
169.021127641       7.71651056936
169.521190149       7.99988066306
170.021252657       8.29954784487
170.521315164       8.61660659325
171.021377672       8.9522504342
171.52144018       9.30778104272
172.021502688       9.68461832831
172.521565196       10.0843115987
173.021627703       10.5085519014
173.521690211       10.9591856456
174.021752719       11.4382296104
174.521815227       11.9478874418
175.021877735       12.4905677363
175.521940243       13.0689037942
176.02200275       13.6857751039
176.522065258       14.3443305779
177.022127766       15.048013509
177.522190274       15.8005881276
178.022252782       16.6061675256
178.522315289       17.4692425433
179.022377797       18.3947109865
179.522440305       19.3879062238
180.022502813       20.4546237885
180.522565321       21.6011440344
181.022627828       22.8342481386
181.522690336       24.1612237421
182.022752844       25.5898552292
182.522815352       27.1283919823
183.02287786       28.7854858633
183.522940368       30.570086588
184.023002875       32.4912805639
184.523065383       34.5580551779
185.023127891       36.7789666076
185.523190399       39.161685345
186.023252907       41.7123904284
186.523315414       44.4349820424
187.023377922       47.3300844406
187.52344043       50.3938196967
188.023502938       53.6163510354
188.523565446       56.9802265251
189.023627953       60.458603613
189.523690461       64.0135044454
190.023752969       67.594338616
190.523815477       71.1370230885
191.023877985       74.5641056857
191.523940493       77.7863226027
192.024003       80.7059473746
192.524065508       83.2220802746
193.024128016       85.2376751376
193.524190524       86.6676530717
194.024253032       87.4470239238
194.524315539       87.5376843455
195.024378047       86.932624799
195.524440555       85.6567004702
196.024503063       83.7638063229
196.524565571       81.3310332178
197.024628079       78.4509355734
197.524690586       75.2232588085
198.024753094       71.7473431134
198.524815602       68.1160462459
199.02487811       64.4115710636
199.524940618       60.7031813614
200.025003125       57.0465187109
200.525065633       53.484106272
201.025128141       50.0466141004
201.525190649       46.7545199987
202.025253157       43.6198897034
202.525315664       40.6480915798
203.025378172       37.8393384856
203.52544068       35.1900075054
204.025503188       32.6937274121
204.525565696       30.3422473708
205.025628204       28.1261127069
205.525690711       26.0351783037
206.025753219       24.0589903476
206.525815727       22.1870648347
207.025878235       20.4090879116
207.525940743       18.7150595922
208.02600325       17.095399171
208.526065758       15.5410279438
209.026128266       14.0434427112
209.526190774       12.5947919191
210.026253282       11.1879650036
210.526315789       9.81670432637
211.026378297       8.47574761683
211.526440805       7.16100660273
212.026503313       5.86978385918
212.526565821       4.60102411118
213.026628329       3.35558757212
213.526690836       2.13652098274
214.026753344       0.949287176987
214.526815852       -0.198102019255
215.02687836       -1.295118197
215.526940868       -2.32898756005
216.027003375       -3.28526307541
216.527065883       -4.14872560374
217.027128391       -4.90458329362
217.527190899       -5.53986275619
218.027253407       -6.04481168285
218.527315914       -6.41408731168
219.027378422       -6.64751267383
219.52744093       -6.75025145392
220.027503438       -6.73236743293
220.527565946       -6.60786059553
221.027628454       -6.3933688336
221.527690961       -6.10676464608
222.027753469       -5.7658566799
222.527815977       -5.38734380668
223.027878485       -4.9860916485
223.527940993       -4.57473199871
224.0280035       -4.16353807531
224.528066008       -3.76050570389
225.028128516       -3.37156769645
225.528191024       -3.0008783686
226.028253532       -2.65112028914
226.52831604       -2.32380098978
227.028378547       -2.01952072046
227.528441055       -1.73820239752
228.028503563       -1.47928171044
228.528566071       -1.24185949039
229.028628579       -1.02482060492
229.528691086       -0.826924476782
230.028753594       -0.646872344474
230.528816102       -0.483355957241
231.02887861       -0.335091772142
231.528941118       -0.200844044784
232.029003625       -0.0794395623137
232.529066133       0.0302238025725
233.029128641       0.129173020241
233.529191149       0.218359014566
234.029253657       0.298657971332
234.529316165       0.370874109992
235.029378672       0.435743377457
235.52944118       0.493937670635
236.029503688       0.546069306552
236.529566196       0.592695543111
237.029628704       0.634323016016
237.529691211       0.671412003454
238.029753719       0.704380463603
238.529816227       0.733607814104
239.029878735       0.759438439688
239.529941243       0.782184925976
240.03000375       0.802131025467
240.530066258       0.819534366904
241.030128766       0.834628922405
241.530191274       0.84762724847
242.030253782       0.858722517683
242.53031629       0.868090357955
243.030378797       0.875890515711
243.530441305       0.882268358658
244.030503813       0.887356232872
244.530566321       0.891274687898
245.030628829       0.8941335825
245.530691336       0.896033082681
246.030753844       0.897064562531
246.530816352       0.897311417538
247.03087886       0.896849799066
247.530941368       0.895749277878
248.031003875       0.894073443806
248.531066383       0.891880447957
249.031128891       0.889223493228
249.531191399       0.886151278271
250.031253907       0.882708399584
250.531316415       0.878935715874
251.031378922       0.874870678446
251.53144143       0.870547630975
252.031503938       0.865998081674
252.531566446       0.861250950564
253.031628954       0.856332794279
253.531691461       0.851268010582
254.031753969       0.84607902455
254.531816477       0.840786458206
255.031878985       0.835409285153
255.531941493       0.829964971666
256.032004001       0.824469605496
256.532066508       0.818938013566
257.032129016       0.813383869576
257.532191524       0.807819792477
258.032254032       0.802257436639
258.53231654       0.796707574503
259.032379047       0.791180172378
259.532441555       0.785684460033
260.032504063       0.78022899463
260.532566571       0.774821719527
261.032629079       0.769470018395
261.532691586       0.764180765082
262.032754094       0.758960369604
262.532816602       0.753814820603
263.03287911       0.748749724594
263.532941618       0.743770342275
264.033004126       0.738881622179
264.533066633       0.734088231888
265.033129141       0.729394587027
265.533191649       0.72480487825
266.033254157       0.720323096378
266.533316665       0.715953055864
267.033379172       0.711698416738
267.53344168       0.707562705156
268.033504188       0.703549332699
268.533566696       0.699661614514
269.033629204       0.695902786418
269.533691711       0.692276021059
270.033754219       0.688784443221
270.533816727       0.685431144342
271.033879235       0.682219196349
271.533941743       0.679151664837
272.034004251       0.676231621691
272.534066758       0.67346215718
273.034129266       0.67084639159
273.534191774       0.668387486427
274.034254282       0.666088655245
274.53431679       0.663953174122
275.034379297       0.661984391821
