#  x                 y             frequency           rot. str.
0.0      0.0678536539104      80.66      7.21
0.500062507813      0.0689041155576      123.29      19.75
1.00012501563      0.0699749748727      188.05      -52.28
1.50018752344      0.0710667268141      230.29      -8.21
2.00025003125      0.0721798811341      277.13      14.14
2.50031253907      0.0733149629125      334.70      7.27
3.00037504688      0.0744725131117      388.86      -14.37
3.50043755469      0.0756530891564      480.80      4.47
4.00050006251      0.0768572655377      581.30      34.19
4.50056257032      0.078085634444      732.03      -30.34
5.00062507813      0.0793388064185      767.64      -17.43
5.50068758595      0.0806174110463      810.83      18.36
6.00075009376      0.0819220976716      836.79      59.85
6.50081260158      0.0832535361465      877.93      55.96
7.00087510939      0.0846124176138      906.06      -50.80
7.5009376172      0.0859994553243      991.59      -39.23
8.00100012502      0.0874153854922      1025.79      -27.00
8.50106263283      0.0888609681884      1121.10      27.11
9.00112514064      0.0903369882758      1150.89      -19.03
9.50118764846      0.0918442563871      1225.53      -13.68
10.0012501563      0.0933836099488      1261.29      55.14
10.5013126641      0.0949559142528      1310.04      6.82
11.0013751719      0.0965620635784      1383.20      -13.91
11.5014376797      0.0982029823687      1394.53      -44.90
12.0015001875      0.0998796264616      1403.59      28.71
12.5015626953      0.101592984382      1413.69      26.99
13.0016252032      0.103344078697      1497.37      2.43
13.501687711      0.105133967432      1666.78      23.60
14.0017502188      0.106963745567      1831.67      28.51
14.5018127266      0.108834546596      3048.50      7.12
15.0018752344      0.110747544173      3092.89      1.94
15.5019377422      0.112703953836      3104.25      -0.48
16.00200025      0.114705034818      3492.23      1.52
16.5020627578      0.116752091957      3511.86      -13.95
17.0021252657      0.118846477694      3566.23      2.68
17.5021877735      0.120989594185      3782.07      -0.68
18.0022502813       0.123182895519
18.5023127891       0.125427890049
19.0023752969       0.127726142854
19.5024378047       0.130079278328
20.0025003125       0.132488982911
20.5025628204       0.134957007964
21.0026253282       0.137485172812
21.502687836       0.140075367939
22.0027503438       0.142729558376
22.5028128516       0.145449787273
23.0028753594       0.148238179668
23.5029378672       0.151096946481
24.003000375       0.15402838873
24.5030628829       0.157034901995
25.0031253907       0.160118981142
25.5031878985       0.163283225325
26.0032504063       0.166530343286
26.5033129141       0.169863158973
27.0033754219       0.173284617499
27.5034379297       0.176797791459
28.0035004376       0.180405887644
28.5035629454       0.184112254163
29.0036254532       0.187920388021
29.503687961       0.191833943162
30.0037504688       0.19585673904
30.5038129766       0.199992769727
31.0038754844       0.204246213623
31.5039379922       0.208621443794
32.0040005001       0.213123038997
32.5040630079       0.217755795439
33.0041255157       0.222524739324
33.5041880235       0.227435140261
34.0042505313       0.232492525577
34.5043130391       0.237702695636
35.0043755469       0.243071740215
35.5044380548       0.248606056039
36.0045005626       0.25431236557
36.5045630704       0.260197737135
37.0046255782       0.266269606523
37.504688086       0.272535800162
38.0047505938       0.279004560009
38.5048131016       0.2856845703
39.0048756095       0.29258498632
39.5049381173       0.299715465362
40.0050006251       0.307086200068
40.5050631329       0.314707954365
41.0051256407       0.322592102215
41.5051881485       0.330750669444
42.0052506563       0.339196378915
42.5053131641       0.347942699359
43.005375672       0.35700389819
43.5054381798       0.366395098685
44.0055006876       0.37613234193
44.5055631954       0.386232653978
45.0056257032       0.396714118726
45.505688211       0.407595957054
46.0057507188       0.41889861283
46.5058132267       0.430643846462
47.0058757345       0.442854836731
47.5059382423       0.455556291737
48.0060007501       0.468774569866
48.5060632579       0.482537811799
49.0061257657       0.496876084675
49.5061882735       0.511821539675
50.0062507813       0.527408584398
50.5063132892       0.543674071578
51.006375797       0.560657505858
51.5064383048       0.578401270518
52.0065008126       0.596950876278
52.5065633204       0.616355234533
53.0066258282       0.63666695762
53.506688336       0.657942689036
54.0067508439       0.680243466821
54.5068133517       0.703635123675
55.0068758595       0.728188727767
55.5069383673       0.753981068608
56.0070008751       0.781095192805
56.5070633829       0.809620995001
57.0071258907       0.839655869795
57.5071883985       0.871305430996
58.0072509064       0.904684305055
58.5073134142       0.93991700608
59.007375922       0.977138900283
59.5074384298       1.01649726815
60.0075009376       1.05815247287
60.5075634454       1.1022792436
61.0076259532       1.14906808194
61.5076884611       1.19872679923
62.0077509689       1.25148219085
62.5078134767       1.30758185151
63.0078759845       1.36729613174
63.5079384923       1.4309202306
64.0080010001       1.49877641155
64.5080635079       1.57121631771
65.0081260158       1.64862334692
65.5081885236       1.73141502603
66.0082510314       1.82004529476
66.5083135392       1.91500657045
67.008376047       2.0168314129
67.5084385548       2.12609353996
68.0085010626       2.24340785395
68.5085635704       2.36942902365
69.0086260783       2.50484801788
69.5086885861       2.65038580252
70.0087510939       2.80678318638
70.5088136017       2.97478553425
71.0088761095       3.15512076235
71.5089386173       3.34846871099
72.0090011251       3.55541968996
72.509063633       3.77641978179
73.0091261408       4.01170047955
73.5091886486       4.26119060044
74.0092511564       4.5244093933
74.5093136642       4.80034165112
75.009376172       5.08729878485
75.5094386798       5.38277448662
76.0095011876       5.68330985754
76.5095636955       5.98439025634
77.0096262033       6.2804033933
77.5096887111       6.56469305158
78.0097512189       6.82974197627
78.5098137267       7.06750734423
79.0098762345       7.26991045396
79.5099387423       7.42944984729
80.0100012502       7.53987011098
80.510063758       7.59678822287
81.0101262658       7.59816837376
81.5101887736       7.54455347536
82.0102512814       7.43900607669
82.5103137892       7.28677092588
83.010376297       7.09472698835
83.5104388049       6.87073121654
84.0105013127       6.62296182784
84.5105638205       6.35934869884
85.0106263283       6.08714390814
85.5106888361       5.81264922206
86.0107513439       5.54108873331
86.5108138517       5.27659787003
87.0108763595       5.02229397845
87.5109388674       4.78039556143
88.0110013752       4.5523634239
88.511063883       4.33904450387
89.0111263908       4.14080619181
89.5111888986       3.95765457698
90.0112514064       3.78933409654
90.5113139142       3.63540866816
91.0113764221       3.49532587362
91.5114389299       3.36846645977
92.0115014377       3.25418161381
92.5115639455       3.15182036406
93.0116264533       3.06074920133
93.5116889611       2.98036570192
94.0117514689       2.9101076176
94.5118139767       2.84945860817
95.0118764846       2.79795154173
95.5119389924       2.75517007947
96.0120015002       2.72074909281
96.512064008       2.69437432747
97.0121265158       2.67578162445
97.5121890236       2.66475592843
98.0122515314       2.66113025319
98.5123140393       2.6647847289
99.0123765471       2.67564582209
99.5124390549       2.69368579553
100.012501563       2.71892245741
100.512564071       2.75141923745
101.012626578       2.79128561918
101.512689086       2.83867795236
102.012751594       2.89380066597
102.512814102       2.95690789997
103.01287661       3.02830557267
103.512939117       3.10835389869
104.013001625       3.19747037051
104.513064133       3.29613321323
105.013126641       3.40488531656
105.513189149       3.52433863961
106.013251656       3.65517907087
106.513314164       3.79817170713
107.013376672       3.95416648722
107.51343918       4.12410407855
108.013501688       4.3090218606
108.513564196       4.51005977688
109.013626703       4.72846572778
109.513689211       4.96560004426
110.013751719       5.22293840693
110.513814227       5.5020723443
111.013876735       5.80470614577
111.513939242       6.13264864287
112.01400175       6.48779783281
112.514064258       6.87211572848
113.014126766       7.28759011428
113.514189274       7.7361790787
114.014251781       8.21973332215
114.514314289       8.73989038986
115.014376797       9.29793431999
115.514439305       9.89461399883
116.014501813       10.5299142053
116.514564321       11.2027755125
117.014626828       11.9107636889
117.514689336       12.649696919
118.014751844       13.4132508698
118.514814352       14.1925777153
119.01487686       14.9759948896
119.514939367       15.7488198013
120.015001875       16.4934424437
120.515064383       17.1897303652
121.015126891       17.8158398929
121.515189399       18.3494560207
122.015251906       18.7694008516
122.515314414       19.0574499325
123.015376922       19.2001047483
123.51543943       19.1900234211
124.015501938       19.0268387348
124.515564446       18.7171979633
125.015626953       18.2740162467
125.515689461       17.715095197
126.015751969       17.0613705326
126.515814477       16.3350875922
127.015876985       15.5581635681
127.515939492       14.7509070489
128.016002       13.9311644125
128.516064508       13.1138774939
129.016127016       12.3109822462
129.516189524       11.5315547692
130.016252032       10.7821117796
130.516314539       10.0669874199
131.016377047       9.38872858932
131.516439555       8.74847088144
132.016502063       8.14627371366
132.516564571       7.58140536399
133.016627078       7.05257667467
133.516689586       6.55812692886
134.016752094       6.09616778018
134.516814602       5.66469192127
135.01687711       5.26165304566
135.516939617       4.88502302798
136.017002125       4.53283140869
136.517064633       4.20319139431
137.017127141       3.89431576679
137.517189649       3.60452537967
138.017252157       3.33225231708
138.517314664       3.0760393016
139.017377172       2.83453654575
139.51743968       2.60649693552
140.017502188       2.39077019733
140.517564696       2.18629651922
141.017627203       1.99209995981
141.517689711       1.80728187697
142.017752219       1.63101453162
142.517814727       1.46253496704
143.017877235       1.30113922344
143.517939742       1.1461769187
144.01800225       0.997046206083
144.518064758       0.853189105385
145.018127266       0.714087195007
145.518189774       0.579257646099
146.018252282       0.448249576568
146.518314789       0.320640700778
147.018377297       0.196034250119
147.518439805       0.0740561397697
148.018502313       -0.0456476423665
148.518564821       -0.163413447578
149.018627328       -0.279562200958
149.518689836       -0.394401479327
150.018752344       -0.508227451804
150.518814852       -0.621326701186
151.01887736       -0.733977943149
151.518939867       -0.846453659283
152.019002375       -0.95902165905
152.519064883       -1.07194658501
153.019127391       -1.18549137496
153.519189899       -1.29991869419
154.019252407       -1.41549235061
154.519314914       -1.53247870532
155.019377422       -1.65114809101
155.51943993       -1.77177625073
156.019502438       -1.89464580961
156.519564946       -2.02004779247
157.019627453       -2.14828320082
157.519689961       -2.27966466313
158.019752469       -2.41451817334
158.519814977       -2.55318493318
159.019877485       -2.6960233153
159.519939992       -2.8434109653
160.0200025       -2.99574706236
160.520065008       -3.15345475992
161.020127516       -3.3169838297
161.520190024       -3.48681353465
162.020252532       -3.6634557588
162.520315039       -3.84745842473
163.020377547       -4.03940923215
163.520440055       -4.23993975465
164.020502563       -4.44972993455
164.520565071       -4.66951302007
165.020627578       -4.90008099209
165.520690086       -5.1422905322
166.020752594       -5.39706958688
166.520815102       -5.66542458622
167.02087761       -5.94844837831
167.520940118       -6.24732894172
168.021002625       -6.56335893884
168.521065133       -6.89794616959
169.021127641       -7.25262497933
169.521190149       -7.62906866267
170.021252657       -8.02910288641
170.521315164       -8.45472012547
171.021377672       -8.90809506295
171.52144018       -9.39160084351
172.021502688       -9.90782598195
172.521565196       -10.4595916076
173.021627703       -11.0499685583
173.521690211       -11.6822936122
174.021752719       -12.3601838397
174.521815227       -13.0875476553
175.021877735       -13.8685906138
175.521940243       -14.707813299
176.02200275       -15.6099977603
176.522065258       -16.5801778142
177.022127766       -17.6235871178
177.522190274       -18.7455772081
178.022252782       -19.9514956893
178.522315289       -21.2465125084
179.022377797       -22.6353799396
179.522440305       -24.1221098287
180.022502813       -25.7095503968
180.522565321       -27.3988453738
181.022627828       -29.1887617899
181.522690336       -31.074881257
182.022752844       -33.0486653154
182.522815352       -35.0964308112
183.02287786       -37.1983080318
183.522940368       -39.32730214
184.023002875       -41.4486328784
184.523065383       -43.5195777629
185.023127891       -45.4900714354
185.523190399       -47.3042934298
186.023252907       -48.9033832514
186.523315414       -50.22924277
187.023377922       -51.2291369809
187.52344043       -51.8605393725
188.023502938       -52.0954743128
188.523565446       -51.9235763503
189.023627953       -51.3532643144
189.523690461       -50.4107887156
190.023752969       -49.1373488279
190.523815477       -47.584850722
191.023877985       -45.8110776918
191.523940493       -43.8750331121
192.024003       -41.8330350833
192.524065508       -39.7358804305
193.024128016       -37.627141732
193.524190524       -35.5424733694
194.024253032       -33.5097004052
194.524315539       -31.5494370462
195.024378047       -29.6760050861
195.524440555       -27.898471575
196.024503063       -26.221679595
196.524565571       -24.6471948335
197.024628079       -23.1741286523
197.524690586       -21.7998248831
198.024753094       -20.5204142363
198.524815602       -19.331249367
199.02487811       -18.2272376251
199.524940618       -17.2030892452
200.025003125       -16.2534976101
200.525065633       -15.3732662075
201.025128141       -14.557394589
201.525190649       -13.8011333801
202.025253157       -13.1000163486
202.525315664       -12.4498757959
203.025378172       -11.8468460922
203.52544068       -11.2873590123
204.025503188       -10.7681336143
204.525565696       -10.2861626841
205.025628204       -9.83869722271
205.525690711       -9.4232300376
206.025753219       -9.03747918222
206.525815727       -8.67937175935
207.025878235       -8.34702842923
207.525940743       -8.03874883996
208.02600325       -7.75299810721
208.526065758       -7.48839440689
209.026128266       -7.24369770034
209.526190774       -7.01779958131
210.026253282       -6.80971421468
210.526315789       -6.6185703243
211.026378297       -6.44360417985
211.526440805       -6.28415352837
212.026503313       -6.13965241339
212.526565821       -6.00962682234
213.026628329       -5.89369109988
213.526690836       -5.79154506001
214.026753344       -5.70297172168
214.526815852       -5.62783558027
215.02687836       -5.56608130845
215.526940868       -5.51773275297
216.027003375       -5.48289205564
216.527065883       -5.46173867469
217.027128391       -5.45452801187
217.527190899       -5.46158925706
218.027253407       -5.48332193947
218.527315914       -5.52019051728
219.027378422       -5.57271613888
219.52744093       -5.64146446451
220.027503438       -5.72702814412
220.527565946       -5.83000221228
221.027628454       -5.95095029881
221.527690961       -6.09035920361
222.027753469       -6.24857911435
222.527815977       -6.42574667139
223.027878485       -6.6216883854
223.527940993       -6.83580284301
224.0280035       -7.06692202746
224.528066008       -7.31315531393
225.028128516       -7.57172461463
225.528191024       -7.83880588236
226.028253532       -8.10940038323
226.52831604       -8.37726763689
227.028378547       -8.63495835557
227.528441055       -8.87398656107
228.028503563       -9.08517119852
228.528566071       -9.25915580014
229.028628579       -9.38708014984
229.528691086       -9.46133603357
230.028753594       -9.47630160693
230.528816102       -9.42893038692
231.02887861       -9.3190830323
231.528941118       -9.14953464666
232.029003625       -8.9256560383
232.529066133       -8.65483357407
233.029128641       -8.34573811827
233.529191149       -8.00756721592
234.029253657       -7.64936733351
234.529316165       -7.2795059509
235.029378672       -6.90532133834
235.52944118       -6.53294275714
236.029503688       -6.16725144586
236.529566196       -5.81194336755
237.029628704       -5.46965519416
237.529691211       -5.14212126983
238.029753719       -4.83033774928
238.529816227       -4.53471835488
239.029878735       -4.25523300724
239.529941243       -3.99152558012
240.03000375       -3.74301033124
240.530066258       -3.50894850359
241.030128766       -3.28850755588
241.530191274       -3.08080580354
242.030253782       -2.88494518828
242.53031629       -2.70003462939
243.030378797       -2.52520605991
243.530441305       -2.35962488703
244.030503813       -2.20249627714
244.530566321       -2.05306836955
245.030628829       -1.91063327364
245.530691336       -1.77452650184
246.030753844       -1.64412532863
246.530816352       -1.51884643927
247.03087886       -1.39814313372
247.530941368       -1.28150227633
248.031003875       -1.16844112508
248.531066383       -1.05850413165
249.031128891       -0.951259771744
249.531191399       -0.846297441778
250.031253907       -0.743224440956
250.531316415       -0.641663045066
251.031378922       -0.541247669483
251.53144143       -0.441622112306
252.031503938       -0.342436863918
252.531566446       -0.243346465976
253.031628954       -0.144006900438
253.531691461       -0.0440729875533
254.031753969       0.0568042295498
254.531816477       0.15898013692
255.031878985       0.26281926244
255.531941493       0.36869807347
256.032004001       0.477007884068
256.532066508       0.588157896282
257.032129016       0.702578399443
257.532191524       0.820724150204
258.032254032       0.943077953959
258.53231654       1.07015446481
259.032379047       1.20250421601
259.532441555       1.34071788486
260.032504063       1.48543078464
260.532566571       1.6373275598
261.032629079       1.79714703781
261.532691586       1.96568715923
262.032754094       2.14380986431
262.532816602       2.33244575519
263.03287911       2.53259827376
263.532941618       2.74534702957
264.033004126       2.97184977282
264.533066633       3.213342326
265.033129141       3.47113555321
265.533191649       3.74660814879
266.033254157       4.04119365572
266.533316665       4.35635967189
267.033379172       4.69357666945
267.53344168       5.05427325202
268.033504188       5.43977404647
268.533566696       5.85121584932
269.033629204       6.2894372665
269.533691711       6.75483712947
270.033754219       7.24719779154
270.533816727       7.76547148844
271.033879235       8.30753189681
271.533941743       8.86989949634
272.034004251       9.44745884898
272.534066758       10.0331984675
273.034129266       10.6180185503
273.534191774       11.1906658549
274.034254282       11.7378636326
274.53431679       12.2447012363
275.034379297       12.6953258055
275.534441805       13.0739331977
276.034504313       13.3659899871
276.534566821       13.5595460679
