#  x                 y             frequency           rot. str.
0.0      -0.383075378889      68.95      -21.17
0.500062507813      -0.387982757872      151.41      -27.67
1.00012501563      -0.39298773922      157.44      -32.23
1.50018752344      -0.398093021759      264.13      17.37
2.00025003125      -0.403301400198      305.50      45.52
2.50031253907      -0.408615769276      323.27      48.89
3.00037504688      -0.414039128122      367.20      -45.91
3.50043755469      -0.419574584847      411.35      -5.38
4.00050006251      -0.425225361364      532.79      6.19
4.50056257032      -0.43099479846      605.93      38.30
5.00062507813      -0.436886361142      734.18      -45.82
5.50068758595      -0.442903644252      798.97      54.29
6.00075009376      -0.449050378396      830.92      -98.45
6.50081260158      -0.455330436177      909.09      -6.32
7.00087510939      -0.461747838772      977.53      22.79
7.5009376172      -0.468306762868      1032.69      30.34
8.00100012502      -0.475011547972      1041.23      40.20
8.50106263283      -0.481866704129      1131.28      25.53
9.00112514064      -0.488876920073      1165.35      3.94
9.50118764846      -0.496047071824      1218.98      -0.07
10.0012501563      -0.503382231785      1247.42      -8.16
10.5013126641      -0.510887678345      1340.21      8.73
11.0013751719      -0.518568906045      1362.65      16.46
11.5014376797      -0.526431636317      1393.13      15.22
12.0015001875      -0.534481828869      1404.93      -72.59
12.5015626953      -0.542725693719      1421.50      31.19
13.0016252032      -0.551169703961      1510.32      -0.18
13.501687711      -0.559820609279      1677.54      13.22
14.0017502188      -0.568685450283      1828.33      -21.72
14.5018127266      -0.577771573717      3000.44      14.50
15.0018752344      -0.587086648591      3054.07      -5.00
15.5019377422      -0.596638683316      3103.19      -0.70
16.00200025      -0.606436043906      3481.16      2.37
16.5020627578      -0.616487473316      3494.83      -60.13
17.0021252657      -0.626802112012      3549.37      -2.01
17.5021877735      -0.637389519856      3799.38      -0.99
18.0022502813       -0.648259699388
18.5023127891       -0.65942312064
19.0023752969       -0.670890747561
19.5024378047       -0.682674066197
20.0025003125       -0.694785114743
20.5025628204       -0.707236515633
21.0026253282       -0.720041509787
21.502687836       -0.733213993224
22.0027503438       -0.746768556192
22.5028128516       -0.760720525036
23.0028753594       -0.775086007007
23.5029378672       -0.789881938257
24.003000375       -0.805126135279
24.5030628829       -0.820837350057
25.0031253907       -0.837035329259
25.5031878985       -0.853740877783
26.0032504063       -0.870975927038
26.5033129141       -0.888763608351
27.0033754219       -0.907128331945
27.5034379297       -0.92609587196
28.0035004376       -0.945693458058
28.5035629454       -0.96594987416
29.0036254532       -0.986895564985
29.503687961       -1.00856275106
30.0037504688       -1.03098555296
30.5038129766       -1.05420012566
31.0038754844       -1.07824480388
31.5039379922       -1.10316025944
32.0040005001       -1.12898967183
32.5040630079       -1.1557789131
33.0041255157       -1.18357674854
33.5041880235       -1.21243505471
34.0042505313       -1.24240905627
34.5043130391       -1.27355758378
35.0043755469       -1.30594335423
35.5044380548       -1.33963327673
36.0045005626       -1.37469878587
36.5045630704       -1.41121620547
37.0046255782       -1.44926714587
37.504688086       -1.48893893816
38.0047505938       -1.53032510929
38.5048131016       -1.57352590206
39.0048756095       -1.61864884499
39.5049381173       -1.66580937711
40.0050006251       -1.71513153357
40.5050631329       -1.76674869855
41.0051256407       -1.82080443269
41.5051881485       -1.87745338296
42.0052506563       -1.93686228399
42.5053131641       -1.99921106052
43.005375672       -2.06469404214
43.5054381798       -2.13352130216
44.0055006876       -2.2059201341
44.5055631954       -2.28213668052
45.0056257032       -2.36243773021
45.505688211       -2.44711270151
46.0057507188       -2.53647583098
46.5058132267       -2.63086858805
47.0058757345       -2.73066233811
47.5059382423       -2.83626127747
48.0060007501       -2.94810566495
48.5060632579       -3.06667537512
49.0061257657       -3.19249379847
49.5061882735       -3.32613211201
50.0062507813       -3.46821394127
50.5063132892       -3.6194204296
51.006375797       -3.78049572203
51.5064383048       -3.95225285889
52.0065008126       -4.13558005545
52.5065633204       -4.33144731742
53.0066258282       -4.54091330477
53.506688336       -4.76513230434
54.0067508439       -5.00536110069
54.5068133517       -5.26296543798
55.0068758595       -5.53942563671
55.5069383673       -5.83634075666
56.0070008751       -6.15543047139
56.5070633829       -6.49853352527
57.0071258907       -6.86760126598
57.5071883985       -7.26468426762
58.0072509064       -7.69190946775
58.5073134142       -8.15144452651
59.007375922       -8.64544528376
59.5074384298       -9.17598126976
60.0075009376       -9.74493329238
60.5075634454       -10.3538563223
61.0076259532       -11.0038004789
61.5076884611       -11.6950832782
62.0077509689       -12.4270080294
62.5078134767       -13.1975271357
63.0078759845       -14.0028560318
63.5079384923       -14.8370545208
64.0080010001       -15.6916079616
64.5080635079       -16.555060765
65.0081260158       -17.412776799
65.5081885236       -18.2469207042
66.0082510314       -19.0367626925
66.5083135392       -19.7593967708
67.008376047       -20.3909187507
67.5084385548       -20.908032295
68.0085010626       -21.2899473537
68.5085635704       -21.5203302803
69.0086260783       -21.5889951883
69.5086885861       -21.4930267747
70.0087510939       -21.2371112591
70.5088136017       -20.8330071457
71.0088761095       -20.2982644995
71.5089386173       -19.654443712
72.0090011251       -18.9251512909
72.509063633       -18.1341919768
73.0091261408       -17.3040549797
73.5091886486       -16.454844353
74.0092511564       -15.6036640532
74.5093136642       -14.7643979769
75.009376172       -13.9477896038
75.5094386798       -13.1617191811
76.0095011876       -12.4115883737
76.5095636955       -11.7007429578
77.0096262033       -11.0308861021
77.5096887111       -10.4024538842
78.0097512189       -9.81493927477
78.5098137267       -9.26716082266
79.0098762345       -8.75747843399
79.5099387423       -8.28396192426
80.0100012502       -7.84451936339
80.510063758       -7.43699236538
81.0101262658       -7.0592249361
81.5101887736       -6.70911164273
82.0102512814       -6.38462992855
82.5103137892       -6.08386049272
83.010376297       -5.80499884787
83.5104388049       -5.54636048287
84.0105013127       -5.30638149363
84.5105638205       -5.08361609217
85.0106263283       -4.87673204694
85.5106888361       -4.68450483062
86.0107513439       -4.5058110391
86.5108138517       -4.33962148437
87.0108763595       -4.18499424301
87.5109388674       -4.04106785236
88.0110013752       -3.90705478016
88.511063883       -3.78223524526
89.0111263908       -3.66595143271
89.5111888986       -3.55760212169
90.0112514064       -3.4566377281
90.5113139142       -3.36255575198
91.0113764221       -3.27489661264
91.5114389299       -3.19323984985
92.0115014377       -3.11720066683
92.5115639455       -3.04642679016
93.0116264533       -2.98059562143
93.5116889611       -2.91941165624
94.0117514689       -2.86260414749
94.5118139767       -2.80992499089
95.0118764846       -2.76114681255
95.5119389924       -2.71606123981
96.0120015002       -2.67447733809
96.512064008       -2.63622019817
97.0121265158       -2.60112965942
97.5121890236       -2.56905915635
98.0122515314       -2.53987467651
98.5123140393       -2.51345381948
99.0123765471       -2.4896849472
99.5124390549       -2.46846641742
100.012501563       -2.44970589246
100.512564071       -2.43331971642
101.012626578       -2.41923235486
101.512689086       -2.40737589138
102.012751594       -2.3976895762
102.512814102       -2.39011942253
103.01287661       -2.38461784669
103.512939117       -2.38114334863
104.013001625       -2.37966022994
104.513064133       -2.38013834636
105.013126641       -2.38255289282
105.513189149       -2.3868842187
106.013251656       -2.39311767165
106.513314164       -2.4012434684
107.013376672       -2.41125659136
107.51343918       -2.42315670989
108.013501688       -2.43694812541
108.513564196       -2.45263973964
109.013626703       -2.47024504564
109.513689211       -2.48978214122
110.013751719       -2.51127376471
110.513814227       -2.53474735309
111.013876735       -2.56023512278
111.513939242       -2.58777417348
112.01400175       -2.61740661566
112.514064258       -2.64917972251
113.014126766       -2.68314610729
113.514189274       -2.71936392722
114.014251781       -2.75789711543
114.514314289       -2.79881564244
115.014376797       -2.84219580913
115.514439305       -2.88812057319
116.014501813       -2.9366799117
116.514564321       -2.98797122219
117.014626828       -3.0420997656
117.514689336       -3.0991791543
118.014751844       -3.15933188914
118.514814352       -3.22268994972
119.01487686       -3.28939544271
119.514939367       -3.35960131357
120.015001875       -3.4334721275
120.515064383       -3.51118492637
121.015126891       -3.59293016887
121.515189399       -3.67891276211
122.015251906       -3.76935319392
122.515314414       -3.86448877568
123.015376922       -3.96457500737
123.51543943       -4.06988707707
124.015501938       -4.18072150899
124.515564446       -4.29739797556
125.015626953       -4.42026129071
125.515689461       -4.54968360348
126.015751969       -4.68606681308
126.515814477       -4.82984522884
127.015876985       -4.98148850084
127.515939492       -5.1415048497
128.016002       -5.31044462677
128.516064508       -5.4889042389
129.016127016       -5.6775304751
129.516189524       -5.87702527513
130.016252032       -6.08815098349
130.516314539       -6.31173613442
131.016377047       -6.548681816
131.516439555       -6.79996866274
132.016502063       -7.06666452566
132.516564571       -7.34993286714
133.016627078       -7.65104192273
133.516689586       -7.97137466305
134.016752094       -8.31243957393
134.516814602       -8.67588225054
135.01687711       -9.06349776732
135.516939617       -9.47724373718
136.017002125       -9.91925390582
136.517064633       -10.3918520321
137.017127141       -10.897565677
137.517189649       -11.4391393482
138.017252157       -12.0195462157
138.517314664       -12.6419973039
139.017377172       -13.309946664
139.51743968       -14.0270905109
140.017502188       -14.797357651
140.517564696       -15.6248877087
141.017627203       -16.5139926686
141.517689711       -17.4690960888
142.017752219       -18.4946430521
142.517814727       -19.5949725998
143.017877235       -20.7741432293
143.517939742       -22.0357013626
144.01800225       -23.382383044
144.518064758       -24.8157412529
145.018127266       -26.335696182
145.518189774       -27.9400148412
146.018252282       -29.6237406226
146.518314789       -31.3786136771
147.018377297       -33.1925484658
147.518439805       -35.0492625136
148.018502313       -36.9281734603
148.518564821       -38.8046891552
149.018627328       -40.6509942513
149.518689836       -42.4373746704
150.018752344       -44.1340155808
150.518814852       -45.7130735235
151.01887736       -47.150694409
151.518939867       -48.4285762362
152.019002375       -49.5347043303
152.519064883       -50.4630348396
153.019127391       -51.2121416945
153.519189899       -51.7831059899
154.019252407       -52.1771337031
154.519314914       -52.3934753237
155.019377422       -52.4281660546
155.51943993       -52.2739244084
156.019502438       -51.9212844132
156.519564946       -51.3607504192
157.019627453       -50.5855173276
157.519689961       -49.5941541437
158.019752469       -48.3926494538
158.519814977       -46.9953716652
159.019877485       -45.4247635074
159.519939992       -43.7098877525
160.0200025       -41.8841782592
160.520065008       -39.9828646934
161.020127516       -38.0405190498
161.520190024       -36.089052738
162.020252532       -34.1563324841
162.520315039       -32.2654348188
163.020377547       -30.434454224
163.520440055       -28.6767270669
164.020502563       -27.0013236537
164.520565071       -25.4136786068
165.020627578       -23.916260311
165.520690086       -22.5092124953
166.020752594       -21.1909289567
166.520815102       -19.9585436117
167.02087761       -18.8083324364
167.520940118       -17.7360325601
168.021002625       -16.7370882793
168.521065133       -15.8068354314
169.021127641       -14.9406355052
169.521190149       -14.1339698637
170.021252657       -13.3825030354
170.521315164       -12.6821225155
171.021377672       -12.0289610845
171.52144018       -11.4194063892
172.021502688       -10.8501014626
172.521565196       -10.3179389872
173.021627703       -9.82005140807
173.521690211       -9.35379845771
174.021752719       -8.9167532273
174.521815227       -8.50668760105
175.021877735       -8.12155762392
175.521940243       -7.75948919258
176.02200275       -7.41876432503
176.522065258       -7.0978081665
177.022127766       -6.79517681888
177.522190274       -6.50954603095
178.022252782       -6.23970075193
178.522315289       -5.98452552767
179.022377797       -5.74299570348
179.522440305       -5.51416938834
180.022502813       -5.29718013051
180.522565321       -5.0912302521
181.022627828       -4.89558479076
181.522690336       -4.70956599768
182.022752844       -4.53254834356
182.522815352       -4.3639539872
183.02287786       -4.20324866417
183.522940368       -4.04993795655
184.023002875       -3.90356390766
184.523065383       -3.76370194913
185.023127891       -3.62995811013
185.523190399       -3.50196648188
186.023252907       -3.37938691257
186.523315414       -3.26190291078
187.023377922       -3.14921973693
187.52344043       -3.04106266506
188.023502938       -2.93717539829
188.523565446       -2.83731862348
189.023627953       -2.74126869171
189.523690461       -2.64881641277
190.023752969       -2.55976595281
190.523815477       -2.47393382563
191.023877985       -2.39114796871
191.523940493       -2.31124689634
192.024003       -2.23407892262
192.524065508       -2.15950144798
193.024128016       -2.08738030357
193.524190524       -2.01758914813
194.024253032       -1.95000891286
194.524315539       -1.88452728982
195.024378047       -1.82103826024
195.524440555       -1.75944165904
196.024503063       -1.69964277266
196.524565571       -1.64155196705
197.024628079       -1.58508434351
197.524690586       -1.53015941981
198.024753094       -1.47670083463
198.524815602       -1.42463607316
199.02487811       -1.3738962123
199.524940618       -1.32441568375
200.025003125       -1.27613205347
200.525065633       -1.22898581625
201.025128141       -1.18292020413
201.525190649       -1.13788100751
202.025253157       -1.09381640799
202.525315664       -1.05067682196
203.025378172       -1.00841475401
203.52544068       -0.966984659499
204.025503188       -0.926342815463
204.525565696       -0.886447199151
205.025628204       -0.847257373673
205.525690711       -0.808734380104
206.025753219       -0.770840635537
206.525815727       -0.733539836586
207.025878235       -0.696796867885
207.525940743       -0.660577715152
208.02600325       -0.624849382417
208.526065758       -0.58957981304
209.026128266       -0.554737814167
209.526190774       -0.520292984304
210.026253282       -0.486215643676
210.526315789       -0.452476767093
211.026378297       -0.41904791903
211.526440805       -0.385901190656
212.026503313       -0.35300913855
212.526565821       -0.32034472485
213.026628329       -0.287881258602
213.526690836       -0.255592338051
214.026753344       -0.223451793666
214.526815852       -0.191433631644
215.02687836       -0.159511977673
215.526940868       -0.127661020726
216.027003375       -0.0958549566476
216.527065883       -0.0640679312968
217.027128391       -0.0322739830104
217.527190899       -0.000446984133741
218.027253407       0.0314394186343
218.527315914       0.0634118653494
219.027378422       0.0954973456614
219.52744093       0.127723263677
220.027503438       0.160117505156
220.527565946       0.192708507367
221.027628454       0.225525331947
221.527690961       0.258597741153
222.027753469       0.291956277885
222.527815977       0.325632349921
223.027878485       0.359658318836
223.527940993       0.394067594085
224.0280035       0.428894732825
224.528066008       0.46417554604
225.028128516       0.499947211637
225.528191024       0.536248395201
226.028253532       0.573119379194
226.52831604       0.610602201435
227.028378547       0.648740803779
227.528441055       0.687581192038
228.028503563       0.727171608228
228.528566071       0.767562716405
229.028628579       0.808807803427
229.528691086       0.850962996153
230.028753594       0.894087496723
230.528816102       0.938243837767
231.02887861       0.98349815954
231.528941118       1.02992051126
232.029003625       1.07758517911
232.529066133       1.12657104364
233.029128641       1.17696196973
233.529191149       1.2288472323
234.029253657       1.28232198184
234.529316165       1.33748775359
235.029378672       1.39445302537
235.52944118       1.45333382896
236.029503688       1.51425442095
236.529566196       1.5773480193
237.029628704       1.64275761286
237.529691211       1.71063685153
238.029753719       1.7811510259
238.529816227       1.85447814598
239.029878735       1.9308101296
239.529941243       2.01035411235
240.03000375       2.09333389187
240.530066258       2.17999152066
241.030128766       2.2705890628
241.530191274       2.36541053131
242.030253782       2.46476402399
242.53031629       2.56898407701
243.030378797       2.678434256
243.530441305       2.79351000556
244.030503813       2.91464177773
244.530566321       3.04229845939
245.030628829       3.17699111681
245.530691336       3.31927707181
246.030753844       3.46976431817
246.530816352       3.62911627802
247.03087886       3.79805688408
247.530941368       3.97737595452
248.031003875       4.16793479909
248.531066383       4.37067195709
249.031128891       4.58660891455
249.531191399       4.81685557588
250.031253907       5.06261516864
250.531316415       5.32518813026
251.031378922       5.60597435542
251.53144143       5.9064729595
252.031503938       6.22827842661
252.531566446       6.57307164518
253.031628954       6.94260387901
253.531691461       7.33867116632
254.031753969       7.76307598524
254.531816477       8.21757228683
255.031878985       8.70378922529
255.531941493       9.22312820655
256.032004001       9.77662740649
256.532066508       10.3647879627
257.032129016       10.9873570476
257.532191524       11.643065581
258.032254032       12.3293231814
258.53231654       13.0418808976
259.032379047       13.7744839259
259.532441555       14.5185519377
260.032504063       15.2629425756
260.532566571       15.9938708848
261.032629079       16.6950680981
261.532691586       17.3482591969
262.032754094       17.9340114695
262.532816602       18.4329508183
263.03287911       18.8272623473
263.532941618       19.1023029606
264.033004126       19.2480840356
264.533066633       19.2603624114
265.033129141       19.1411271047
265.533191649       18.8983820532
266.033254157       18.545269821
266.533316665       18.0987113949
267.033379172       17.5778132923
267.53344168       17.0022989992
268.033504188       16.3911680701
268.533566696       15.7617011099
269.033629204       15.1288426603
269.533691711       14.5049278835
270.033754219       13.8996810147
270.533816727       13.3204014885
271.033879235       12.7722596617
271.533941743       12.2586395583
272.034004251       11.7814842316
272.534066758       11.3416159772
273.034129266       10.9390168003
273.534191774       10.5730638726
274.034254282       10.2427206696
