#  x                 y             frequency           rot. str.
0.0      -0.0272394564235      52.69      -0.01
0.500062507813      -0.0272817121169      159.95      13.51
1.00012501563      -0.0273236999081      218.14      -37.55
1.50018752344      -0.0273654135203      228.67      3.20
2.00025003125      -0.0274068466568      320.07      6.27
2.50031253907      -0.0274479930078      328.66      -8.28
3.00037504688      -0.0274888462576      411.07      0.17
3.50043755469      -0.0275294000932      437.32      -19.34
4.00050006251      -0.0275696482131      525.95      -25.43
4.50056257032      -0.0276095843368      581.09      -50.23
5.00062507813      -0.0276492022162      625.24      12.69
5.50068758595      -0.0276884956467      732.82      10.09
6.00075009376      -0.0277274584806      796.72      56.85
6.50081260158      -0.0277660846406      831.18      -37.05
7.00087510939      -0.0278043681356      972.97      -11.00
7.5009376172      -0.0278423030769      1056.48      1.08
8.00100012502      -0.0278798836969      1073.90      65.34
8.50106263283      -0.0279171043687      1116.61      10.95
9.00112514064      -0.0279539596277      1153.49      -60.18
9.50118764846      -0.0279904441957      1204.49      -1.31
10.0012501563      -0.0280265530061      1234.33      6.81
10.5013126641      -0.0280622812322      1302.28      6.46
11.0013751719      -0.0280976243181      1316.09      -10.36
11.5014376797      -0.0281325780119      1378.52      5.49
12.0015001875      -0.0281671384022      1416.07      56.36
12.5015626953      -0.0282013019575      1431.59      -42.44
13.0016252032      -0.0282350655704      1504.93      -0.88
13.501687711      -0.028268426604      1641.58      67.54
14.0017502188      -0.0283013829442      1816.11      2.40
14.5018127266      -0.0283339330555      2947.32      10.64
15.0018752344      -0.0283660760434      3008.57      0.91
15.5019377422      -0.0283978117207      3094.06      -3.81
16.00200025      -0.0284291406815      3510.01      -16.35
16.5020627578      -0.0284600643818      3595.24      13.14
17.0021252657      -0.0284905852265      3722.48      0.88
17.5021877735      -0.0285207066664      3787.63      -3.39
18.0022502813       -0.0285504333031
18.5023127891       -0.0285797710038
19.0023752969       -0.0286087270281
19.5024378047       -0.0286373101661
20.0025003125       -0.0286655308902
20.5025628204       -0.0286934015212
21.0026253282       -0.0287209364118
21.502687836       -0.0287481521466
22.0027503438       -0.0287750677633
22.5028128516       -0.0288017049951
23.0028753594       -0.0288280885377
23.5029378672       -0.0288542463431
24.003000375       -0.0288802099437
24.5030628829       -0.0289060148087
25.0031253907       -0.0289317007377
25.5031878985       -0.0289573122946
26.0032504063       -0.0289828992867
26.5033129141       -0.0290085172939
27.0033754219       -0.0290342282524
27.5034379297       -0.0290601011006
28.0035004376       -0.0290862124928
28.5035629454       -0.0291126475874
29.0036254532       -0.0291395009196
29.503687961       -0.0291668773641
30.0037504688       -0.0291948932014
30.5038129766       -0.0292236772934
31.0038754844       -0.0292533723829
31.5039379922       -0.0292841365261
32.0040005001       -0.0293161446703
32.5040630079       -0.0293495903901
33.0041255157       -0.0293846877911
33.5041880235       -0.0294216735946
34.0042505313       -0.0294608094091
34.5043130391       -0.0295023841973
35.0043755469       -0.0295467169363
35.5044380548       -0.0295941594673
36.0045005626       -0.0296450995151
36.5045630704       -0.0296999638477
37.0046255782       -0.0297592215209
37.504688086       -0.0298233871271
38.0047505938       -0.029893023927
38.5048131016       -0.029968746689
39.0048756095       -0.0300512239917
39.5049381173       -0.0301411796506
40.0050006251       -0.0302393928064
40.5050631329       -0.0303466960568
41.0051256407       -0.0304639708067
41.5051881485       -0.0305921387658
42.0052506563       -0.030732148206
42.5053131641       -0.0308849532295
43.005375672       -0.0310514838777
43.5054381798       -0.0312326044677
44.0055006876       -0.0314290571256
44.5055631954       -0.031641387178
45.0056257032       -0.0318698470292
45.505688211       -0.0321142756123
46.0057507188       -0.0323739517882
46.5058132267       -0.0326474225915
47.0058757345       -0.0329323114554
47.5059382423       -0.0332251178787
48.0060007501       -0.0335210285222
48.5060632579       -0.0338137698985
49.0061257657       -0.0340955429867
49.5061882735       -0.0343570871995
50.0062507813       -0.0345879206489
50.5063132892       -0.0347767906122
51.006375797       -0.034912339004
51.5064383048       -0.0349839434995
52.0065008126       -0.0349826436863
52.5065633204       -0.0349020183031
53.0066258282       -0.0347388621599
53.506688336       -0.0344935325389
54.0067508439       -0.0341698944578
54.5068133517       -0.0337748761
55.0068758595       -0.0333177239994
55.5069383673       -0.0328090978797
56.0070008751       -0.0322601553295
56.5070633829       -0.0316817505253
57.0071258907       -0.0310838240199
57.5071883985       -0.0304750100289
58.0072509064       -0.0298624470352
58.5073134142       -0.0292517528591
59.007375922       -0.0286471160896
59.5074384298       -0.0280514578059
60.0075009376       -0.027466625818
60.5075634454       -0.026893594066
61.0076259532       -0.026332649658
61.5076884611       -0.0257835579901
62.0077509689       -0.0252457021351
62.5078134767       -0.0247181964189
63.0078759845       -0.0241999762579
63.5079384923       -0.0236898673544
64.0080010001       -0.023186637653
64.5080635079       -0.022689035331
65.0081260158       -0.0221958157494
65.5081885236       -0.0217057598587
66.0082510314       -0.0212176861141
66.5083135392       -0.0207304575445
67.008376047       -0.0202429852753
67.5084385548       -0.019754229503
68.0085010626       -0.0192631986866
68.5085635704       -0.0187689475286
69.0086260783       -0.0182705741713
69.5086885861       -0.0177672169191
70.0087510939       -0.0172580507097
70.5088136017       -0.0167422834946
71.0088761095       -0.0162191526356
71.5089386173       -0.0156879213913
72.0090011251       -0.0151478755398
72.509063633       -0.0145983201633
73.0091261408       -0.0140385766098
73.5091886486       -0.0134679796336
74.0092511564       -0.0128858747122
74.5093136642       -0.0122916155328
75.009376172       -0.0116845616371
75.5094386798       -0.0110640762134
76.0095011876       -0.0104295240229
76.5095636955       -0.0097802694473
77.0096262033       -0.00911567464533
77.5096887111       -0.00843509780522
78.0097512189       -0.00773789148185
78.5098137267       -0.00702340100712
79.0098762345       -0.00629096296291
79.5099387423       -0.005539903707
80.0100012502       -0.00476953794247
80.510063758       -0.00397916732223
81.0101262658       -0.00316807908036
81.5101887736       -0.00233554468296
82.0102512814       -0.00148081849134
82.5103137892       -0.000603136430888
83.010376297       0.00029828534059
83.5104388049       0.0012242517711
84.0105013127       0.0021755902649
84.5105638205       0.00315315205071
85.0106263283       0.00415781357291
85.5106888361       0.0051904779109
86.0107513439       0.0062520762318
86.5108138517       0.00734356928128
87.0108763595       0.00846594891775
87.5109388674       0.00962023969457
88.0110013752       0.0108075004956
88.511063883       0.0120288262291
89.0111263908       0.0132853495847
89.5111888986       0.0145782428593
90.0112514064       0.0159087198577
90.5113139142       0.0172780378719
91.0113764221       0.0186874997469
91.5114389299       0.0201384560381
92.0115014377       0.0216323072665
92.5115639455       0.0231705062787
93.0116264533       0.0247545607189
93.5116889611       0.0263860356197
94.0117514689       0.0280665561195
94.5118139767       0.0297978103158
95.0118764846       0.031581552261
95.5119389924       0.0334196051126
96.0120015002       0.0353138644442
96.512064008       0.0372663017318
97.0121265158       0.0392789680221
97.5121890236       0.0413539977985
98.0122515314       0.0434936130543
98.5123140393       0.0457001275883
99.0123765471       0.0479759515367
99.5124390549       0.0503235961558
100.012501563       0.0527456788731
100.512564071       0.0552449286235
101.012626578       0.0578241914894
101.512689086       0.0604864366648
102.012751594       0.0632347627654
102.512814102       0.0660724045072
103.01287661       0.0690027397785
103.512939117       0.0720292971323
104.013001625       0.075155763728
104.513064133       0.0783859937516
105.013126641       0.0817240173503
105.513189149       0.0851740501144
106.013251656       0.0887405031472
106.513314164       0.0924279937631
107.013376672       0.0962413568595
107.51343918       0.10018565701
108.013501688       0.104266201331
108.513564196       0.108488553183
109.013626703       0.112858546756
109.513689211       0.117382302618
110.013751719       0.122066244292
110.513814227       0.12691711594
111.013876735       0.131942001233
111.513939242       0.137148343511
112.01400175       0.142543967315
112.514064258       0.148137101415
113.014126766       0.153936403438
113.514189274       0.159950986232
114.014251781       0.166190446098
114.514314289       0.172664893045
115.014376797       0.179384983231
115.514439305       0.186361953766
116.014501813       0.193607660082
116.514564321       0.201134616067
117.014626828       0.208956037218
117.514689336       0.217085887049
118.014751844       0.225538927042
118.514814352       0.234330770452
119.01487686       0.24347794029
119.514939367       0.252997931859
120.015001875       0.262909280254
120.515064383       0.273231633248
121.015126891       0.283985830084
121.515189399       0.295193986676
122.015251906       0.30687958784
122.515314414       0.319067587181
123.015376922       0.331784515377
123.51543943       0.345058597634
124.015501938       0.358919881201
124.515564446       0.373400373897
125.015626953       0.388534194738
125.515689461       0.404357737825
126.015751969       0.42090985083
126.515814477       0.438232029495
127.015876985       0.45636862979
127.515939492       0.475367099489
128.016002       0.495278231147
128.516064508       0.516156438691
129.016127016       0.538060060046
129.516189524       0.561051688525
130.016252032       0.585198535988
130.516314539       0.610572831127
131.016377047       0.637252256599
131.516439555       0.665320429158
132.016502063       0.694867427381
132.516564571       0.725990372099
133.016627078       0.758794065234
133.516689586       0.793391693319
134.016752094       0.829905602697
134.516814602       0.868468154127
135.01687711       0.909222665326
135.516939617       0.952324450846
136.017002125       0.997941969612
136.517064633       1.04625809141
137.017127141       1.0974714946
137.517189649       1.15179820832
138.017252157       1.20947331346
138.517314664       1.27075281734
139.017377172       1.33591571803
139.51743968       1.40526627415
140.017502188       1.47913649629
140.517564696       1.55788887514
141.017627203       1.64191935939
141.517689711       1.73166059378
142.017752219       1.82758542143
142.517814727       1.93021064751
143.017877235       2.04010104839
143.517939742       2.15787359415
144.01800225       2.28420182775
144.518064758       2.41982031088
145.018127266       2.565529001
145.518189774       2.72219736201
146.018252282       2.89076792768
146.518314789       3.07225892684
147.018377297       3.26776543384
147.518439805       3.47845831879
148.018502313       3.70558002983
148.518564821       3.95043593276
149.018627328       4.21437955432
149.518689836       4.49878961709
150.018752344       4.80503622108
150.518814852       5.13443293941
151.01887736       5.48817100032
151.518939867       5.86723122042
152.019002375       6.27226909433
152.519064883       6.70346869069
153.019127391       7.16036212902
153.519189899       7.64161392141
154.019252407       8.14477396615
154.519314914       8.66601008367
155.019377422       9.19984106819
155.51943993       9.73890404532
156.019502438       10.2738040609
156.519564946       10.7931061126
157.019627453       11.2835350782
157.519689961       11.7304405426
158.019752469       12.1185552187
158.519814977       12.4330253334
159.019877485       12.6606248184
159.519939992       12.7909983351
160.0200025       12.8177344621
160.520065008       12.739072002
161.020127516       12.5580987222
161.520190024       12.2824014976
162.020252532       11.9232396605
162.520315039       11.494403288
163.020377547       11.0109593854
163.520440055       10.4880761535
164.020502563       9.94006285824
164.520565071       9.37969393641
165.020627578       8.81782281312
165.520690086       8.26324656635
166.020752594       7.72276029601
166.520815102       7.2013361295
167.02087761       6.70236964188
167.520940118       6.22794970967
168.021002625       5.77912181772
168.521065133       5.35612697143
169.021127641       4.95860760374
169.521190149       4.58577818809
170.021252657       4.2365621493
170.521315164       3.90969872784
171.021377672       3.6038242858
171.52144018       3.31753261431
172.021502688       3.04941845141
172.521565196       2.79810787498
173.021627703       2.56227863479
173.521690211       2.34067291214
174.021752719       2.13210448229
174.521815227       1.93546181903
175.021877735       1.74970832232
175.521940243       1.57388056235
176.02200275       1.40708520686
176.522065258       1.24849512252
177.022127766       1.09734500676
177.522190274       0.952926803875
178.022252782       0.814585082661
178.522315289       0.68171249584
179.022377797       0.553745399377
179.522440305       0.430159679268
180.022502813       0.310466811295
180.522565321       0.194210163619
181.022627828       0.0809615411342
181.522690336       -0.0296820368751
182.022752844       -0.138101339184
182.522815352       -0.244657721652
183.02287786       -0.349695741105
183.522940368       -0.453545603249
184.023002875       -0.556525464123
184.523065383       -0.658943604497
185.023127891       -0.761100496329
185.523190399       -0.863290779975
186.023252907       -0.96580517039
186.523315414       -1.06893231015
187.023377922       -1.17296058679
187.52344043       -1.27817993164
188.023502938       -1.38488361743
188.523565446       -1.49337007165
189.023627953       -1.60394472326
189.523690461       -1.71692190033
190.023752969       -1.83262679703
190.523815477       -1.95139752905
191.023877985       -2.07358729735
191.523940493       -2.19956668161
192.024003       -2.32972608575
192.524065508       -2.46447835974
193.024128016       -2.60426162365
193.524190524       -2.74954232175
194.024253032       -2.90081853688
194.524315539       -3.05862359748
195.024378047       -3.22353001231
195.524440555       -3.39615377022
196.024503063       -3.57715904489
196.524565571       -3.76726334691
197.024628079       -3.96724316701
197.524690586       -4.17794015579
198.024753094       -4.40026788516
198.524815602       -4.63521923482
199.02487811       -4.88387444344
199.524940618       -5.14740985581
200.025003125       -5.42710738523
200.525065633       -5.72436469024
201.025128141       -6.04070603612
201.525190649       -6.37779376945
202.025253157       -6.73744027475
202.525315664       -7.12162019958
203.025378172       -7.53248262093
203.52544068       -7.97236267112
204.025503188       -8.44379193365
204.525565696       -8.94950664188
205.025628204       -9.49245234778
205.525690711       -10.0757832494
206.025753219       -10.7028537498
206.525815727       -11.3771990356
207.025878235       -12.1025004856
207.525940743       -12.8825305264
208.02600325       -13.7210701435
208.526065758       -14.621790668
209.026128266       -15.5880897897
209.526190774       -16.6228702087
210.026253282       -17.7282482973
210.526315789       -18.9051802094
211.026378297       -20.1529949683
211.526440805       -21.4688294447
212.026503313       -22.8469704294
212.526565821       -24.2781259369
213.026628329       -25.7486728397
213.526690836       -27.2399610369
214.026753344       -28.727793055
214.526815852       -30.1822354025
215.02687836       -31.5679417499
215.526940868       -32.8451606834
216.027003375       -33.9715438399
216.527065883       -34.9047522942
217.027128391       -35.6056870358
217.527190899       -36.0419772468
218.027253407       -36.1912072433
218.527315914       -36.0433159556
219.027378422       -35.6017044222
219.52744093       -34.8828273873
220.027503438       -33.9143572133
220.527565946       -32.7322923419
221.027628454       -31.3775515642
221.527690961       -29.8926124448
222.027753469       -28.3186389721
222.527815977       -26.6933597613
223.027878485       -25.0497696188
223.527940993       -23.4155804517
224.0280035       -21.8132608159
224.528066008       -20.2604724851
225.028128516       -18.7707212848
225.528191024       -17.3540704176
226.028253532       -16.0178042152
226.52831604       -14.7669709719
227.028378547       -13.6047720082
227.528441055       -12.5327989926
228.028503563       -11.5511510243
228.528566071       -10.6584837427
229.028628579       -9.85205078991
229.528691086       -9.12779089958
230.028753594       -8.48049332789
230.528816102       -7.90404650958
231.02887861       -7.39174861587
231.528941118       -6.93664194789
232.029003625       -6.53182939689
232.529066133       -6.17073901007
233.029128641       -5.84731703103
233.529191149       -5.55614496985
234.029253657       -5.29248817622
234.529316165       -5.05229030468
235.029378672       -4.83213024424
235.52944118       -4.62915689113
236.029503688       -4.44101414879
236.529566196       -4.26576501994
237.029628704       -4.10182041594
237.529691211       -3.94787572418
238.029753719       -3.80285632513
238.529816227       -3.66587205576
239.029878735       -3.53617992874
239.529941243       -3.41315408877
240.03000375       -3.29626189015
240.530066258       -3.18504501892
241.030128766       -3.0791046922
241.530191274       -2.97809010428
242.030253782       -2.88168942913
242.53031629       -2.78962281806
243.030378797       -2.70163694455
243.530441305       -2.61750074275
244.030503813       -2.53700206394
244.530566321       -2.45994503739
245.030628829       -2.38614797118
245.530691336       -2.31544166707
246.030753844       -2.2476680533
246.530816352       -2.18267906211
247.03087886       -2.12033569634
247.530941368       -2.06050724292
248.031003875       -2.00307060113
248.531066383       -1.94790970144
249.031128891       -1.89491499623
249.531191399       -1.84398300852
250.031253907       -1.79501592786
250.531316415       -1.74792124512
251.031378922       -1.70261141986
251.53144143       -1.65900357539
252.031503938       -1.61701921758
252.531566446       -1.57658397449
253.031628954       -1.53762735431
253.531691461       -1.50008251965
254.031753969       -1.46388607665
254.531816477       -1.42897787747
255.031878985       -1.39530083515
255.531941493       -1.36280074971
256.032004001       -1.33142614484
256.532066508       -1.30112811426
257.032129016       -1.27186017717
257.532191524       -1.24357814221
258.032254032       -1.21623997936
258.53231654       -1.18980569916
259.032379047       -1.16423723908
259.532441555       -1.13949835623
260.032504063       -1.1155545263
260.532566571       -1.09237284824
261.032629079       -1.06992195436
261.532691586       -1.04817192536
262.032754094       -1.02709421031
262.532816602       -1.00666155092
263.03287911       -0.986847910072
263.532941618       -0.967628404239
264.033004126       -0.948979239561
264.533066633       -0.930877651375
265.033129141       -0.91330184694
265.533191649       -0.896230951161
266.033254157       -0.879644955125
266.533316665       -0.863524667242
267.033379172       -0.847851666821
267.53344168       -0.832608259921
268.033504188       -0.817777437292
268.533566696       -0.803342834284
269.033629204       -0.789288692545
