#  x                 y             frequency           rot. str.
0.0      -0.477157422191      48.73      -16.27
0.500062507813      -0.486253957412      104.96      -6.53
1.00012501563      -0.49562002256      191.48      -12.65
1.50018752344      -0.505266434434      251.38      -20.10
2.00025003125      -0.515204555802      267.04      92.03
2.50031253907      -0.525446328515      299.19      -69.10
3.00037504688      -0.536004308978      326.88      -13.68
3.50043755469      -0.546891706142      448.79      -28.38
4.00050006251      -0.558122422233      523.23      13.07
4.50056257032      -0.56971109645      591.39      20.64
5.00062507813      -0.581673151855      607.23      21.10
5.50068758595      -0.594024845746      763.29      -20.30
6.00075009376      -0.606783323794      799.72      24.84
6.50081260158      -0.619966678259      855.66      32.10
7.00087510939      -0.633594010652      979.88      1.70
7.5009376172      -0.647685499206      1011.80      -22.97
8.00100012502      -0.662262471593      1075.23      93.10
8.50106263283      -0.677347483341      1115.71      0.15
9.00112514064      -0.69296440246      1148.82      43.11
9.50118764846      -0.709138500833      1165.58      -61.65
10.0012501563      -0.725896552984      1268.61      -51.90
10.5013126641      -0.743266942898      1336.47      29.80
11.0013751719      -0.761279779637      1346.29      10.72
11.5014376797      -0.779967022561      1366.93      -25.40
12.0015001875      -0.799362617073      1405.26      -6.43
12.5015626953      -0.819502641861      1418.29      -8.24
13.0016252032      -0.840425468757      1504.08      -2.07
13.501687711      -0.862171936416      1664.03      16.53
14.0017502188      -0.884785539161      1812.31      -51.44
14.5018127266      -0.908312632481      3024.86      -0.90
15.0018752344      -0.932802656837      3060.86      5.69
15.5019377422      -0.958308381582      3094.58      -1.35
16.00200025      -0.98488617104      3494.28      0.46
16.5020627578      -1.01259627497      3572.13      3.71
17.0021252657      -1.04150314593      3729.99      0.12
17.5021877735      -1.07167578626      3791.22      -0.20
18.0022502813       -1.10318812781
18.5023127891       -1.13611944785
19.0023752969       -1.17055482479
19.5024378047       -1.20658563821
20.0025003125       -1.24431011758
20.5025628204       -1.28383394517
21.0026253282       -1.32527091874
21.502687836       -1.3687436805
22.0027503438       -1.41438451953
22.5028128516       -1.46233625561
23.0028753594       -1.51275321303
23.5029378672       -1.56580229436
24.003000375       -1.62166416472
24.5030628829       -1.68053455828
25.0031253907       -1.74262572005
25.5031878985       -1.80816799696
26.0032504063       -1.87741159352
26.5033129141       -1.95062850852
27.0033754219       -2.02811467044
27.5034379297       -2.1101922899
28.0035004376       -2.19721244858
28.5035629454       -2.28955794372
29.0036254532       -2.38764640738
29.503687961       -2.49193371774
30.0037504688       -2.60291771714
30.5038129766       -2.72114224653
31.0038754844       -2.84720149838
31.5039379922       -2.98174467865
32.0040005001       -3.12548095157
32.5040630079       -3.27918461752
33.0041255157       -3.44370044069
33.5041880235       -3.61994899779
34.0042505313       -3.80893185633
34.5043130391       -4.01173630672
35.0043755469       -4.22953925991
35.5044380548       -4.46360977295
36.0045005626       -4.71530946967
36.5045630704       -4.98608987109
37.0046255782       -5.27748532773
37.504688086       -5.59109984188
38.0047505938       -5.92858557217
38.5048131016       -6.29161022271
39.0048756095       -6.68180984545
39.5049381173       -7.10072286329
40.0050006251       -7.54970043112
40.5050631329       -8.02978773386
41.0051256407       -8.54157071404
41.5051881485       -9.08498338864
42.0052506563       -9.65907287494
42.5053131641       -10.2617231634
43.005375672       -10.8893453087
43.5054381798       -11.5365517191
44.0055006876       -12.1958458206
44.5055631954       -12.85737478
45.0056257032       -13.5088096714
45.505688211       -14.1354296634
46.0057507188       -14.7204873305
46.5058132267       -15.2459128906
47.0058757345       -15.693370026
47.5059382423       -16.0456057569
48.0060007501       -16.2879535909
48.5060632579       -16.4097765411
49.0061257657       -16.4056038084
49.5061882735       -16.2757439984
50.0062507813       -16.0262502738
50.5063132892       -15.6682446571
51.006375797       -15.2167381822
51.5064383048       -14.6891702134
52.0065008126       -14.1039123517
52.5065633204       -13.478944123
53.0066258282       -12.8308325475
53.506688336       -12.1740648746
54.0067508439       -11.5207158527
54.5068133517       -10.8803885728
55.0068758595       -10.2603510504
55.5069383673       -9.66579283237
56.0070008751       -9.10013888017
56.5070633829       -8.56537483339
57.0071258907       -8.06235395067
57.5071883985       -7.59106926335
58.0072509064       -7.15088411147
58.5073134142       -6.74072054654
59.007375922       -6.35920876532
59.5074384298       -6.00480253453
60.0075009376       -5.67586613177
60.5075634454       -5.37073816381
61.0076259532       -5.08777707798
61.5076884611       -4.82539248372
62.0077509689       -4.58206568235
62.5078134767       -4.35636213699
63.0078759845       -4.1469380343
63.5079384923       -3.95254260387
64.0080010001       -3.77201746586
64.5080635079       -3.60429396313
65.0081260158       -3.44838918809
65.5081885236       -3.30340122425
66.0082510314       -3.16850397811
66.5083135392       -3.0429418671
67.008376047       -2.92602454788
67.5084385548       -2.81712180884
68.0085010626       -2.71565870617
68.5085635704       -2.62111099084
69.0086260783       -2.53300085124
69.5086885861       -2.45089297968
70.0087510939       -2.37439096053
70.5088136017       -2.30313397005
71.0088761095       -2.23679377364
71.5089386173       -2.17507200356
72.0090011251       -2.11769769879
72.509063633       -2.06442508865
73.0091261408       -2.01503160179
73.5091886486       -1.96931608341
74.0092511564       -1.92709720428
74.5093136642       -1.88821204654
75.009376172       -1.8525148526
75.5094386798       -1.81987592484
76.0095011876       -1.7901806649
76.5095636955       -1.76332874325
77.0096262033       -1.7392333903
77.5096887111       -1.71782080216
78.0097512189       -1.69902965502
78.5098137267       -1.68281072339
79.0098762345       -1.66912659835
79.5099387423       -1.65795150344
80.0100012502       -1.64927120629
80.510063758       -1.64308302558
81.0101262658       -1.63939593351
81.5101887736       -1.63823075519
82.0102512814       -1.63962046694
82.5103137892       -1.64361059677
83.010376297       -1.6502597306
83.5104388049       -1.65964012892
84.0105013127       -1.67183845905
84.5105638205       -1.68695664834
85.0106263283       -1.70511286432
85.5106888361       -1.72644262709
86.0107513439       -1.75110005889
86.5108138517       -1.77925927419
87.0108763595       -1.8111159115
87.5109388674       -1.84688880391
88.0110013752       -1.88682178033
88.511063883       -1.93118558094
89.0111263908       -1.98027985908
89.5111888986       -2.03443522603
90.0112514064       -2.09401527322
90.5113139142       -2.15941847685
91.0113764221       -2.23107985018
91.5114389299       -2.30947215609
92.0115014377       -2.39510642252
92.5115639455       -2.48853141351
93.0116264533       -2.59033159178
93.5116889611       -2.70112296215
94.0117514689       -2.82154600285
94.5118139767       -2.95225467164
95.0118764846       -3.09390021732
95.5119389924       -3.24710824367
96.0120015002       -3.4124471849
96.512064008       -3.59038610375
97.0121265158       -3.78123959246
97.5121890236       -3.98509766394
98.0122515314       -4.20173904641
98.5123140393       -4.43052748018
99.0123765471       -4.67029275465
99.5124390549       -4.91920161021
100.012501563       -5.17462845451
100.512564071       -5.43304199993
101.012626578       -5.68993075947
101.512689086       -5.9397963421
102.012751594       -6.1762461884
102.512814102       -6.39221357817
103.01287661       -6.58031941802
103.512939117       -6.73336633245
104.013001625       -6.84492359009
104.513064133       -6.90992893647
105.013126641       -6.92521171098
105.513189149       -6.88984155088
106.013251656       -6.80523336102
106.513314164       -6.67498688857
107.013376672       -6.50449385712
107.51343918       -6.30038970366
108.013501688       -6.06994778509
108.513564196       -5.82050856197
109.013626703       -5.559011282
109.513689211       -5.29166246659
110.013751719       -5.02374474958
110.513814227       -4.75954783046
111.013876735       -4.50239219172
111.513939242       -4.25471408235
112.01400175       -4.01818392388
112.514064258       -3.79383664902
113.014126766       -3.58219926388
113.514189274       -3.38340683078
114.014251781       -3.19730258332
114.514314289       -3.0235209849
115.014376797       -2.86155445336
115.514439305       -2.71080549594
116.014501813       -2.57062641782
116.514564321       -2.44034881103
117.014626828       -2.31930486634
117.514689336       -2.20684228887
118.014751844       -2.10233430862
118.514814352       -2.00518599774
119.01487686       -1.91483785736
119.514939367       -1.8307674248
120.015001875       -1.75248947736
120.515064383       -1.67955526917
121.015126891       -1.61155112693
121.515189399       -1.54809664477
122.015251906       -1.48884265267
122.515314414       -1.43346908326
123.015376922       -1.38168282411
123.51543943       -1.33321561506
124.015501938       -1.28782202961
124.515564446       -1.24527756434
125.015626953       -1.2053768499
125.515689461       -1.16793198932
126.015751969       -1.13277102413
126.515814477       -1.09973652542
127.015876985       -1.06868430454
127.515939492       -1.0394822366
128.016002       -1.01200918961
128.516064508       -0.986154051189
129.016127016       -0.96181484539
129.516189524       -0.93889793192
130.016252032       -0.917317280659
130.516314539       -0.896993814711
131.016377047       -0.877854815679
131.516439555       -0.859833385386
132.016502063       -0.842867958692
132.516564571       -0.826901862559
133.016627078       -0.811882916934
133.516689586       -0.797763073444
134.016752094       -0.784498088284
134.516814602       -0.772047226013
135.01687711       -0.760372991327
135.516939617       -0.749440886148
136.017002125       -0.739219189651
136.517064633       -0.729678759084
137.017127141       -0.720792849473
137.517189649       -0.712536950473
138.017252157       -0.704888638849
138.517314664       -0.69782744518
139.017377172       -0.691334733571
139.51743968       -0.68539359327
140.017502188       -0.679988741186
140.517564696       -0.67510643446
141.017627203       -0.670734392288
141.517689711       -0.666861726308
142.017752219       -0.663478878948
142.517814727       -0.660577569178
143.017877235       -0.65815074521
143.517939742       -0.656192543725
144.01800225       -0.654698255266
144.518064758       -0.653664295502
145.018127266       -0.653088182103
145.518189774       -0.652968517013
146.018252282       -0.653304973957
146.518314789       -0.654098291054
147.018377297       -0.655350268454
147.518439805       -0.657063770937
148.018502313       -0.659242735479
148.518564821       -0.661892183808
149.018627328       -0.665018239998
149.518689836       -0.668628153229
150.018752344       -0.672730325832
150.518814852       -0.677334346809
151.01887736       -0.682451031048
151.518939867       -0.688092464505
152.019002375       -0.69427205565
152.519064883       -0.701004593564
153.019127391       -0.708306313073
153.519189899       -0.716194967425
154.019252407       -0.724689909014
154.519314914       -0.73381217878
155.019377422       -0.743584604946
155.51943993       -0.754031911867
156.019502438       -0.765180839827
156.519564946       -0.777060276743
157.019627453       -0.789701402833
157.519689961       -0.803137849428
158.019752469       -0.817405873241
158.519814977       -0.832544547566
159.019877485       -0.848595972024
159.519939992       -0.865605502688
160.0200025       -0.883622004598
160.520065008       -0.902698128912
161.020127516       -0.922890617218
161.520190024       -0.944260635764
162.020252532       -0.966874142736
162.520315039       -0.990802292027
163.020377547       -1.01612187733
163.520440055       -1.04291582085
164.020502563       -1.07127371135
164.520565071       -1.10129239687
165.020627578       -1.13307663787
165.520690086       -1.16673982748
166.020752594       -1.20240478576
166.520815102       -1.24020463623
167.02087761       -1.28028377319
167.520940118       -1.32279892952
168.021002625       -1.36792035553
168.521065133       -1.41583312018
169.021127641       -1.46673854719
169.521190149       -1.52085579918
170.021252657       -1.57842362404
170.521315164       -1.63970227806
171.021377672       -1.70497564108
171.52144018       -1.7745535384
172.021502688       -1.84877428384
172.521565196       -1.92800745637
173.021627703       -2.0126569199
173.521690211       -2.10316409095
174.021752719       -2.20001145132
174.521815227       -2.3037262921
175.021877735       -2.41488465965
175.521940243       -2.53411545185
176.02200275       -2.66210458248
176.522065258       -2.79959908914
177.022127766       -2.9474110033
177.522190274       -3.10642072436
178.022252782       -3.27757953737
178.522315289       -3.46191078037
179.022377797       -3.66050899237
179.522440305       -3.87453614893
180.022502813       -4.10521380865
180.522565321       -4.35380964229
181.022627828       -4.62161639101
181.522690336       -4.9099208051
182.022752844       -5.21995956521
182.522815352       -5.5528586306
183.02287786       -5.9095519755
183.522940368       -6.29067541496
184.023002875       -6.69643141839
184.523065383       -7.12642180822
185.023127891       -7.5794475099
185.523190399       -8.05327862394
186.023252907       -8.54440460302
186.523315414       -9.04778361145
187.023377922       -9.55662203293
187.52344043       -10.0622283205
188.023502938       -10.5539970804
188.523565446       -11.0195846832
189.023627953       -11.445330604
189.523690461       -11.8169532612
190.023752969       -12.1205030179
190.523815477       -12.343493219
191.023877985       -12.4760670875
191.523940493       -12.5120156868
192.024003       -12.4494611067
192.524065508       -12.291069209
193.024128016       -12.0437480517
193.524190524       -11.7178939729
194.024253032       -11.3263333707
194.524315539       -10.8831494998
195.024378047       -10.4025740853
195.524440555       -9.89807566203
196.024503063       -9.38171228707
196.524565571       -8.86375646072
197.024628079       -8.35255751339
197.524690586       -7.85458482211
198.024753094       -7.37459079415
198.524815602       -6.91583948467
199.02487811       -6.48035897436
199.524940618       -6.0691887809
200.025003125       -5.68260506459
200.525065633       -5.32031518491
201.025128141       -4.98161921819
201.525190649       -4.66553978479
202.025253157       -4.37092354131
202.525315664       -4.09651852093
203.025378172       -3.84103160009
203.52544068       -3.60317005653
204.025503188       -3.38167067866
204.525565696       -3.17531932539
205.025628204       -2.98296329367
205.525690711       -2.80351836718
206.025753219       -2.63597200756
206.525815727       -2.47938381059
207.025878235       -2.332884077
207.525940743       -2.19567113298
208.02600325       -2.06700786864
208.526065758       -1.94621783462
209.026128266       -1.83268114033
209.526190774       -1.72583032412
210.026253282       -1.62514631182
210.526315789       -1.53015454014
211.026378297       -1.44042129233
211.526440805       -1.35555027288
212.026503313       -1.27517943315
212.526565821       -1.19897804959
213.026628329       -1.12664404956
213.526690836       -1.057901575
214.026753344       -0.992498771879
214.526815852       -0.930205791718
215.02687836       -0.870812990956
215.526940868       -0.814129314193
216.027003375       -0.759980847694
216.527065883       -0.708209530401
217.027128391       -0.658672010649
217.527190899       -0.611238637818
218.027253407       -0.565792579279
218.527315914       -0.522229054087
219.027378422       -0.480454676008
219.52744093       -0.440386899528
220.027503438       -0.401953563597
220.527565946       -0.365092528866
221.027628454       -0.329751405218
221.527690961       -0.295887367393
222.027753469       -0.263467057482
222.527815977       -0.23246657406
223.027878485       -0.202871548717
223.527940993       -0.174677311749
224.0280035       -0.147889149769
224.528066008       -0.12252265909
225.028128516       -0.098604199769
225.528191024       -0.0761714563755
226.028253532       -0.0552741126767
226.52831604       -0.0359746486891
227.028378547       -0.0183492697846
227.528441055       -0.00248897884628
228.028503563       0.0114991962231
228.528566071       0.0234908060368
229.028628579       0.033342399465
229.528691086       0.0408897436333
230.028753594       0.0459458273479
230.528816102       0.0482986306025
231.02887861       0.0477086428617
231.528941118       0.0439061136919
232.029003625       0.0365880213714
232.529066133       0.025414748873
233.029128641       0.0100064627362
233.529191149       -0.0100608002544
234.029253657       -0.0352593197917
234.529316165       -0.0661141133974
235.029378672       -0.103207525441
235.52944118       -0.147183877639
236.029503688       -0.198754020973
236.529566196       -0.258699555636
237.029628704       -0.32787638691
237.529691211       -0.407217152979
238.029753719       -0.497731886262
238.529816227       -0.600506041263
239.029878735       -0.716694725829
239.529941243       -0.847511593978
240.03000375       -0.994210381895
240.530066258       -1.15805648112
241.030128766       -1.34028523806
241.530191274       -1.54204285485
242.030253782       -1.76430487849
242.53031629       -2.00776638398
243.030378797       -2.27269723583
243.530441305       -2.55875551199
244.030503813       -2.86475270146
244.530566321       -3.1883662324
245.030628829       -3.52579903359
245.530691336       -3.87139309761
246.030753844       -4.21721527795
246.530816352       -4.55264927213
247.03087886       -4.86404733529
247.530941368       -5.13451625494
248.031003875       -5.34392930508
248.531066383       -5.46926110456
249.031128891       -5.48532549125
249.531191399       -5.3659491036
250.031253907       -5.08553366209
250.531316415       -4.62085899722
251.031378922       -3.95288270169
251.53144143       -3.0682365053
252.031503938       -1.96013523729
252.531566446       -0.62851100497
253.031628954       0.920659197858
253.531691461       2.67669765578
254.031753969       4.62598222301
254.531816477       6.75380593633
255.031878985       9.04606024296
255.531941493       11.4905449337
256.032004001       14.0778084153
256.532066508       16.8015092483
257.032129016       19.6583469203
257.532191524       22.647634003
258.032254032       25.7705800503
258.53231654       29.0293404082
259.032379047       32.4258607186
259.532441555       35.9605283229
260.032504063       39.630630906
260.532566571       43.4286251072
261.032629079       47.3402373773
261.532691586       51.3424595385
262.032754094       55.4015643217
262.532816602       59.4713499802
263.03287911       63.4919190777
263.532941618       67.3893847129
264.033004126       71.0769441431
264.533066633       74.4577203972
265.033129141       77.4296031868
265.533191649       79.8920004024
266.033254157       81.7539704886
266.533316665       82.942742135
267.033379172       83.4112953899
267.53344168       83.1436352162
268.033504188       82.1567167941
268.533566696       80.4986265549
269.033629204       78.2433942243
269.533691711       75.4834620256
270.033754219       72.3211750728
270.533816727       68.8606229116
271.033879235       65.2008352544
271.533941743       61.4308719397
272.034004251       57.6269033669
272.534066758       53.8510530434
