#  x                 y             frequency           rot. str.
0.0      -0.16874571641      45.95      -5.30
0.500062507813      -0.172146183204      133.29      1.21
1.00012501563      -0.175654649143      203.38      -11.56
1.50018752344      -0.179275736759      298.27      20.35
2.00025003125      -0.183014316088      344.33      -7.94
2.50031253907      -0.186875520542      359.64      -39.13
3.00037504688      -0.190864763962      419.06      -28.43
3.50043755469      -0.194987758948      484.21      154.93
4.00050006251      -0.199250536591      498.27      -87.55
4.50056257032      -0.203659467708      535.70      -21.36
5.00062507813      -0.208221285729      636.62      9.43
5.50068758595      -0.212943111364      649.91      18.45
6.00075009376      -0.217832479224      728.49      40.29
6.50081260158      -0.222897366557      876.06      3.35
7.00087510939      -0.228146224298      913.08      13.33
7.5009376172      -0.233588010642      988.47      -38.54
8.00100012502      -0.239232227369      1078.28      -10.11
8.50106263283      -0.245088959175      1128.70      5.20
9.00112514064      -0.251168916304      1159.08      -38.95
9.50118764846      -0.257483480763      1177.02      6.51
10.0012501563      -0.264044756499      1256.48      37.26
10.5013126641      -0.270865623884      1274.79      -24.76
11.0013751719      -0.277959798947      1320.79      -23.49
11.5014376797      -0.285341897806      1366.25      -2.73
12.0015001875      -0.29302750682      1391.31      2.33
12.5015626953      -0.301033259022      1423.36      -7.96
13.0016252032      -0.30937691747      1512.59      -1.42
13.501687711      -0.318077466204      1639.79      12.74
14.0017502188      -0.327155209593      1838.19      -28.61
14.5018127266      -0.336631880934      2956.28      -12.20
15.0018752344      -0.346530761249      3055.73      -4.93
15.5019377422      -0.356876809344      3131.57      3.67
16.00200025      -0.367696804319      3530.42      4.44
16.5020627578      -0.379019501831      3638.15      3.29
17.0021252657      -0.39087580557      3708.06      -8.00
17.5021877735      -0.403298955577      3733.98      1.20
18.0022502813       -0.416324735185
18.5023127891       -0.429991698613
19.0023752969       -0.444341421415
19.5024378047       -0.459418776252
20.0025003125       -0.475272236728
20.5025628204       -0.49195421231
21.0026253282       -0.509521417661
21.502687836       -0.528035280089
22.0027503438       -0.547562389124
22.5028128516       -0.56817499266
23.0028753594       -0.589951544466
23.5029378672       -0.61297730826
24.003000375       -0.63734502392
24.5030628829       -0.663155641734
25.0031253907       -0.690519130864
25.5031878985       -0.719555368313
26.0032504063       -0.750395114679
26.5033129141       -0.783181082635
27.0033754219       -0.818069103365
27.5034379297       -0.855229394919
28.0035004376       -0.894847934388
28.5035629454       -0.937127932649
29.0036254532       -0.982291405797
29.503687961       -1.03058083077
30.0037504688       -1.08226086328
30.5038129766       -1.13762008322
31.0038754844       -1.19697271496
31.5039379922       -1.26066024579
32.0040005001       -1.32905283347
32.5040630079       -1.40255035086
33.0041255157       -1.48158285902
33.5041880235       -1.56661022659
34.0042505313       -1.65812051874
34.5043130391       -1.75662665966
35.0043755469       -1.86266072421
35.5044380548       -1.97676503601
36.0045005626       -2.09947904052
36.5045630704       -2.23132069169
37.0046255782       -2.37276085709
37.504688086       -2.52418904538
38.0047505938       -2.68586865448
38.5048131016       -2.85788002706
39.0048756095       -3.04005002908
39.5049381173       -3.23186783278
40.0050006251       -3.43238832625
40.5050631329       -3.64012732684
41.0051256407       -3.8529566972
41.5051881485       -4.06801246563
42.0052506563       -4.28163459609
42.5053131641       -4.48936191836
43.005375672       -4.68600789918
43.5054381798       -4.86583980889
44.0055006876       -5.02287297911
44.5055631954       -5.15127233704
45.0056257032       -5.24582741496
45.505688211       -5.30244070769
46.0057507188       -5.31855171496
46.5058132267       -5.29341905318
47.0058757345       -5.22820453842
47.5059382423       -5.12584188999
48.0060007501       -4.99071702365
48.5060632579       -4.82822260999
49.0061257657       -4.64426636095
49.5061882735       -4.44480805557
50.0062507813       -4.23547997611
50.5063132892       -4.02131845392
51.006375797       -3.80660929113
51.5064383048       -3.59483218601
52.0065008126       -3.38868031407
52.5065633204       -3.1901295056
53.0066258282       -3.00053444395
53.506688336       -2.8207344718
54.0067508439       -2.65115709461
54.5068133517       -2.49191205884
55.0068758595       -2.34287254013
55.5069383673       -2.20374248763
56.0070008751       -2.07411071635
56.5070633829       -1.95349316663
57.0071258907       -1.84136508712
57.5071883985       -1.73718493199
58.0072509064       -1.64041162944
58.5073134142       -1.55051666548
59.007375922       -1.46699219212
59.5074384298       -1.38935614242
60.0075009376       -1.31715513286
60.5075634454       -1.24996576155
61.0076259532       -1.18739476944
61.5076884611       -1.1290784181
62.0077509689       -1.07468134818
62.5078134767       -1.02389511322
63.0078759845       -0.976436530199
63.5079384923       -0.932045947774
64.0080010001       -0.890485503001
64.5080635079       -0.851537414616
65.0081260158       -0.815002344481
65.5081885236       -0.780697846696
66.0082510314       -0.748456915201
66.5083135392       -0.718126634555
67.008376047       -0.689566934328
67.5084385548       -0.662649444666
68.0085010626       -0.637256448717
68.5085635704       -0.613279926498
69.0086260783       -0.59062068414
69.5086885861       -0.569187562225
70.0087510939       -0.548896716923
70.5088136017       -0.529670967807
71.0088761095       -0.511439206519
71.5089386173       -0.494135860785
72.0090011251       -0.477700408673
72.509063633       -0.462076938376
73.0091261408       -0.447213749172
73.5091886486       -0.433062989615
74.0092511564       -0.419580329349
74.5093136642       -0.406724661275
75.009376172       -0.394457831116
75.5094386798       -0.382744391707
76.0095011876       -0.371551379588
76.5095636955       -0.360848111746
77.0096262033       -0.350606000531
77.5096887111       -0.340798384994
78.0097512189       -0.331400377048
78.5098137267       -0.32238872105
79.0098762345       -0.313741665487
79.5099387423       -0.305438845639
80.0100012502       -0.297461176157
80.510063758       -0.289790752637
81.0101262658       -0.282410761325
81.5101887736       -0.275305396212
82.0102512814       -0.268459782811
82.5103137892       -0.261859908016
83.010376297       -0.25549255546
83.5104388049       -0.249345245886
84.0105013127       -0.243406182052
84.5105638205       -0.237664197769
85.0106263283       -0.232108710674
85.5106888361       -0.226729678422
86.0107513439       -0.221517557952
86.5108138517       -0.216463267564
87.0108763595       -0.211558151537
87.5109388674       -0.206793947047
88.0110013752       -0.202162753169
88.511063883       -0.197657001759
89.0111263908       -0.193269430028
89.5111888986       -0.188993054641
90.0112514064       -0.184821147167
90.5113139142       -0.180747210746
91.0113764221       -0.176764957819
91.5114389299       -0.172868288795
92.0115014377       -0.169051271524
92.5115639455       -0.165308121459
93.0116264533       -0.161633182394
93.5116889611       -0.158020907648
94.0117514689       -0.154465841617
94.5118139767       -0.150962601546
95.0118764846       -0.147505859457
95.5119389924       -0.14409032408
96.0120015002       -0.14071072272
96.512064008       -0.137361782913
97.0121265158       -0.134038213788
97.5121890236       -0.130734686983
98.0122515314       -0.127445817027
98.5123140393       -0.124166141022
99.0123765471       -0.12089009751
99.5124390549       -0.117612004364
100.012501563       -0.114326035554
100.512564071       -0.111026196598
101.012626578       -0.107706298529
101.512689086       -0.10435993017
102.012751594       -0.100980428484
102.512814102       -0.097560846772
103.01287661       -0.0940939204412
103.512939117       -0.0905720300512
104.013001625       -0.0869871613168
104.513064133       -0.0833308617077
105.013126641       -0.0795941932493
105.513189149       -0.0757676810891
106.013251656       -0.071841257343
106.513314164       -0.0678041996876
107.013376672       -0.0636450641066
107.51343918       -0.0593516111367
108.013501688       -0.0549107248916
108.513564196       -0.0503083240689
109.013626703       -0.0455292640657
109.513689211       -0.0405572292457
110.013751719       -0.0353746143126
110.513814227       -0.0299623936575
111.013876735       -0.0242999774582
111.513939242       -0.018365053227
112.01400175       -0.0121334114321
112.514064258       -0.00557875376686
113.014126766       0.00132751737989
113.514189274       0.00861652966855
114.014251781       0.0163221930857
114.514314289       0.0244814748684
115.014376797       0.0331346978434
115.514439305       0.0423258624055
116.014501813       0.052102991532
116.514564321       0.0625184970374
117.014626828       0.0736295635602
117.514689336       0.0854985443846
118.014751844       0.0981933598983
118.514814352       0.111787884978
119.01487686       0.126362305504
119.514939367       0.142003416058
120.015001875       0.158804820061
120.515064383       0.176866979481
121.015126891       0.196297042866
121.515189399       0.217208357104
122.015251906       0.239719538833
122.515314414       0.263952945286
123.015376922       0.290032341144
123.51543943       0.318079508396
124.015501938       0.348209492758
124.515564446       0.380524128214
125.015626953       0.415103440822
125.515689461       0.451994520949
126.015751969       0.491197495478
126.515814477       0.532648365779
127.015876985       0.576198751752
127.515939492       0.621593053185
128.016002       0.66844425756
128.516064508       0.716210609488
129.016127016       0.764176561944
129.516189524       0.811442682603
130.016252032       0.856930149487
130.516314539       0.899405622208
131.016377047       0.937531010571
131.516439555       0.969939503193
132.016502063       0.995334158868
132.516564571       1.01259920213
133.016627078       1.02090858898
133.516689586       1.01981358639
134.016752094       1.00929278037
134.516814602       0.989754392975
135.01687711       0.961990428146
135.516939617       0.927091961253
136.017002125       0.886341745783
136.517064633       0.841102445725
137.017127141       0.792716340988
137.517189649       0.742426941755
138.017252157       0.691326757501
138.517314664       0.640330255542
139.017377172       0.590167697333
139.51743968       0.541394115092
140.017502188       0.494407736923
140.517564696       0.449473078314
141.017627203       0.406745160965
141.517689711       0.366292538977
142.017752219       0.328117822443
142.517814727       0.292175131271
143.017877235       0.258384404126
143.517939742       0.226642777851
144.01800225       0.196833397795
144.518064758       0.168832068739
145.018127266       0.142512147888
145.518189774       0.117748042805
146.018252282       0.0944176257698
146.518314789       0.0724038223963
147.018377297       0.0515955823139
147.518439805       0.0318883958366
148.018502313       0.0131844837331
148.518564821       -0.0046072428196
149.018627328       -0.0215713789585
149.518689836       -0.03778632516
150.018752344       -0.0533246486961
150.518814852       -0.0682534787293
151.01887736       -0.0826349146214
151.518939867       -0.096526433299
152.019002375       -0.109981286158
152.519064883       -0.123048879398
153.019127391       -0.135775134135
153.519189899       -0.148202824438
154.019252407       -0.160371892636
154.519314914       -0.172319742145
155.019377422       -0.184081508608
155.51943993       -0.19569031052
156.019502438       -0.20717748074
156.519564946       -0.21857278039
157.019627453       -0.229904596699
157.519689961       -0.241200126332
158.019752469       -0.252485545725
158.519814977       -0.263786169854
159.019877485       -0.275126600843
159.519939992       -0.286530867693
160.0200025       -0.298022558381
160.520065008       -0.309624945493
161.020127516       -0.321361106471
161.520190024       -0.333254039531
162.020252532       -0.345326776229
162.520315039       -0.357602491622
163.020377547       -0.370104612928
163.520440055       -0.38285692758
164.020502563       -0.395883691517
164.520565071       -0.409209738589
165.020627578       -0.422860591917
165.520690086       -0.436862578074
166.020752594       -0.451242944964
166.520815102       -0.466029984312
167.02087761       -0.481253159703
167.520940118       -0.49694324116
168.021002625       -0.513132447306
168.521065133       -0.529854596228
169.021127641       -0.547145266236
169.521190149       -0.565041967809
170.021252657       -0.58358432812
170.521315164       -0.602814289667
171.021377672       -0.622776324672
171.52144018       -0.643517667063
172.021502688       -0.665088564051
172.521565196       -0.687542549501
173.021627703       -0.710936741535
173.521690211       -0.735332167048
174.021752719       -0.760794116127
174.521815227       -0.787392529659
175.021877735       -0.815202423785
175.521940243       -0.84430435525
176.02200275       -0.874784932137
176.522065258       -0.906737374962
177.022127766       -0.940262133653
177.522190274       -0.975467566488
178.022252782       -1.01247068777
178.522315289       -1.05139799165
179.022377797       -1.0923863603
179.522440305       -1.1355840654
180.022502813       -1.18115187277
180.522565321       -1.22926426077
181.022627828       -1.28011076401
181.522690336       -1.33389745468
182.022752844       -1.39084857442
182.522815352       -1.45120833042
183.02287786       -1.51524286936
183.522940368       -1.58324244299
184.023002875       -1.65552377791
184.523065383       -1.7324326608
185.023127891       -1.81434674687
185.523190399       -1.90167859479
186.023252907       -1.99487892377
186.523315414       -2.09444007782
187.023377922       -2.20089966663
187.52344043       -2.31484433101
188.023502938       -2.43691355087
188.523565446       -2.56780337254
189.023627953       -2.70826987713
189.523690461       -2.85913213699
190.023752969       -3.02127430895
190.523815477       -3.19564638358
191.023877985       -3.38326294154
191.523940493       -3.58519905307
192.024003       -3.80258218522
192.524065508       -4.03657864699
193.024128016       -4.28837270018
193.524190524       -4.55913599957
194.024253032       -4.84998451814
194.524315539       -5.16191960957
195.024378047       -5.49574944696
195.524440555       -5.85198690345
196.024503063       -6.23072024038
196.524565571       -6.6314540788
197.024628079       -7.0529205005
197.524690586       -7.49286428177
198.024753094       -7.94781271394
198.524815602       -8.41284947708
199.02487811       -8.88142327989
199.524940618       -9.34523405046
200.025003125       -9.79424939211
200.525065633       -10.2169071168
201.025128141       -10.6005501655
201.525190649       -10.9321131515
202.025253157       -11.199034083
202.525315664       -11.3903067783
203.025378172       -11.497533935
203.52544068       -11.5158082163
204.025503188       -11.4442570474
204.525565696       -11.2861417235
205.025628204       -11.04849033
205.525690711       -10.7413394885
206.025753219       -10.3767316314
206.525815727       -9.96764264533
207.025878235       -9.52699755188
207.525940743       -9.06688337008
208.02600325       -8.59800904791
208.526065758       -8.12941023359
209.026128266       -7.66836157628
209.526190774       -7.22044285195
210.026253282       -6.78970375185
210.526315789       -6.37887990196
211.026378297       -5.98962432019
211.526440805       -5.6227303615
212.026503313       -5.27833223825
212.526565821       -4.95607671708
213.026628329       -4.65526465624
213.526690836       -4.37496409823
214.026753344       -4.11409820998
214.526815852       -3.87151195368
215.02687836       -3.64602136223
215.526940868       -3.43644895807
216.027003375       -3.24164837439
216.527065883       -3.06052072447
217.027128391       -2.89202477847
217.527190899       -2.73518257767
218.027253407       -2.5890817535
218.527315914       -2.45287552135
219.027378422       -2.32578108201
219.52744093       -2.2070769765
220.027503438       -2.09609979568
220.527565946       -1.99224053537
221.027628454       -1.89494080402
221.527690961       -1.80368902704
222.027753469       -1.71801674566
222.527815977       -1.63749507364
223.027878485       -1.56173135071
223.527940993       -1.49036601329
224.0280035       -1.42306969114
224.528066008       -1.35954052918
225.028128516       -1.29950172864
225.528191024       -1.24269929732
226.028253532       -1.18889999699
226.52831604       -1.13788947448
227.028378547       -1.0894705627
227.528441055       -1.04346173795
228.028503563       -0.999695720304
228.528566071       -0.958018204283
229.028628579       -0.918286708238
229.528691086       -0.880369531228
230.028753594       -0.84414480734
230.528816102       -0.809499648118
231.02887861       -0.776329364603
231.528941118       -0.744536761258
232.029003625       -0.714031494754
232.529066133       -0.684729491297
233.029128641       -0.65655241673
233.529191149       -0.629427194277
234.029253657       -0.603285565236
234.529316165       -0.578063688433
235.029378672       -0.553701774667
235.52944118       -0.530143752719
236.029503688       -0.507336963873
236.529566196       -0.485231882191
237.029628704       -0.463781858047
237.529691211       -0.442942882676
238.029753719       -0.422673371736
238.529816227       -0.402933966031
239.029878735       -0.383687347771
239.529941243       -0.364898070867
240.03000375       -0.346532403915
240.530066258       -0.328558184652
241.030128766       -0.310944684762
241.530191274       -0.293662484041
242.030253782       -0.276683352991
242.53031629       -0.259980143009
243.030378797       -0.243526683403
243.530441305       -0.22729768454
244.030503813       -0.211268646471
244.530566321       -0.195415772443
245.030628829       -0.179715886752
245.530691336       -0.164146356419
246.030753844       -0.148685016209
246.530816352       -0.133310096564
247.03087886       -0.11800015401
247.530941368       -0.10273400365
248.031003875       -0.0874906533619
248.531066383       -0.0722492393412
249.031128891       -0.056988962629
249.531191399       -0.0416890262925
250.031253907       -0.0263285729196
250.531316415       -0.0108866220976
251.031378922       0.00465799245214
251.53144143       0.0203266864149
252.031503938       0.0361411894305
252.531566446       0.0521236109899
253.031628954       0.0682965080299
253.531691461       0.0846829545866
254.031753969       0.101306613883
254.531816477       0.118191813248
255.031878985       0.135363622275
255.531941493       0.152847934672
256.032004001       0.170671554254
256.532066508       0.188862285601
257.032129016       0.207449029893
257.532191524       0.226461886524
258.032254032       0.245932261108
258.53231654       0.265892980561
259.032379047       0.286378415989
259.532441555       0.307424614202
260.032504063       0.329069438706
260.532566571       0.351352721159
261.032629079       0.374316424326
261.532691586       0.39800481769
262.032754094       0.422464666996
262.532816602       0.447745439108
263.03287911       0.47389952374
263.532941618       0.500982473736
264.033004126       0.529053265795
264.533066633       0.558174583699
265.033129141       0.588413126342
265.533191649       0.619839943106
266.033254157       0.652530799393
266.533316665       0.686566575437
267.033379172       0.722033701858
267.53344168       0.759024635812
268.033504188       0.797638381997
268.533566696       0.83798106327
269.033629204       0.88016654615
269.533691711       0.92431712706
