#  x                 y             frequency           rot. str.
0.0      0.208714480751      40.78      6.67
0.500062507813      0.214490930871      112.22      -1.64
1.00012501563      0.220480038397      185.82      35.90
1.50018752344      0.226692024608      210.49      -56.45
2.00025003125      0.233137720602      261.18      -0.19
2.50031253907      0.239828610676      282.45      -1.42
3.00037504688      0.246776879284      307.42      -28.22
3.50043755469      0.253995461891      432.20      0.93
4.00050006251      0.261498100095      508.29      -8.30
4.50056257032      0.26929940143      624.85      56.39
5.00062507813      0.277414904275      646.16      -63.25
5.50068758595      0.285861148381      775.08      16.43
6.00075009376      0.294655751558      807.43      36.06
6.50081260158      0.303817493112      874.77      59.94
7.00087510939      0.313366404717      992.27      -13.09
7.5009376172      0.323323869451      1041.19      -56.65
8.00100012502      0.333712729824      1076.11      32.32
8.50106263283      0.344557405699      1124.64      -43.75
9.00112514064      0.355884023127      1149.24      58.65
9.50118764846      0.367720555209      1177.92      -58.99
10.0012501563      0.380096976239      1248.05      15.06
10.5013126641      0.393045430503      1285.89      47.25
11.0013751719      0.406600417283      1309.92      -7.15
11.5014376797      0.420798993771      1381.02      -58.77
12.0015001875      0.435680997796      1413.42      25.25
12.5015626953      0.45128929248      1447.63      0.87
13.0016252032      0.46767003517      1514.36      -7.58
13.501687711      0.484872973261      1663.65      18.49
14.0017502188      0.502951769795      1802.69      16.90
14.5018127266      0.521964362074      3005.31      0.24
15.0018752344      0.541973356812      3048.05      3.07
15.5019377422      0.5630464658      3093.62      2.94
16.00200025      0.585256986392      3483.74      -3.88
16.5020627578      0.608684331627      3564.01      6.22
17.0021252657      0.633414615199      3707.48      2.26
17.5021877735      0.659541297024      3824.55      -4.71
18.0022502813       0.687165895612
18.5023127891       0.71639877395
19.0023752969       0.747360006047
19.5024378047       0.780180331718
20.0025003125       0.815002207427
20.5025628204       0.851980961141
21.0026253282       0.891286059007
21.502687836       0.933102491075
22.0027503438       0.977632282213
22.5028128516       1.02509613245
23.0028753594       1.07573518795
23.5029378672       1.12981293936
24.003000375       1.18761723751
24.5030628829       1.24946240741
25.0031253907       1.31569142773
25.5031878985       1.38667812544
26.0032504063       1.4628293099
26.5033129141       1.54458673751
27.0033754219       1.63242875292
27.5034379297       1.72687139361
28.0035004376       1.82846866643
28.5035629454       1.93781160395
29.0036254532       2.05552557948
29.503687961       2.18226519739
30.0037504688       2.31870587629
30.5038129766       2.46553100439
31.0038754844       2.62341327348
31.5039379922       2.79298850298
32.0040005001       2.9748199792
32.5040630079       3.1693511117
33.0041255157       3.37684414166
33.5041880235       3.59730287011
34.0042505313       3.83037811133
34.5043130391       4.07525608758
35.0043755469       4.33053257301
35.5044380548       4.59407954772
36.0045005626       4.86291655373
36.5045630704       5.13310558415
37.0046255782       5.39969524655
37.504688086       5.65674524705
38.0047505938       5.89746309933
38.5048131016       6.11447802151
39.0048756095       6.30025960411
39.5049381173       6.44766096876
40.0050006251       6.55053218045
40.5050631329       6.60431891368
41.0051256407       6.60654574909
41.5051881485       6.55709260545
42.0052506563       6.45820837637
42.5053131641       6.31425894898
43.005375672       6.13126080025
43.5054381798       5.91628924513
44.0055006876       5.67686226663
44.5055631954       5.42038735823
45.0056257032       5.15372901177
45.505688211       4.88292035712
46.0057507188       4.61301370841
46.5058132267       4.34804628927
47.0058757345       4.09108952008
47.5059382423       3.84435048203
48.0060007501       3.60929917702
48.5060632579       3.38680205292
49.0061257657       3.17724898625
49.5061882735       2.98066648587
50.0062507813       2.79681398108
50.5063132892       2.62526277334
51.006375797       2.46545883529
51.5064383048       2.31677144251
52.0065008126       2.178529896
52.5065633204       2.05005054934
53.0066258282       1.93065614134
53.506688336       1.81968915263
54.0067508439       1.71652060821
54.5068133517       1.62055547254
55.0068758595       1.53123554154
55.5069383673       1.44804053305
56.0070008751       1.37048791133
56.5070633829       1.29813184946
57.0071258907       1.2305616298
57.5071883985       1.16739970265
58.0072509064       1.10829956229
58.5073134142       1.05294355328
59.007375922       1.00104068539
59.5074384298       0.952324510056
60.0075009376       0.906551092221
60.5075634454       0.863497098134
61.0076259532       0.822958009718
61.5076884611       0.784746469382
62.0077509689       0.748690754407
62.5078134767       0.714633376925
63.0078759845       0.682429803483
63.5079384923       0.651947287029
64.0080010001       0.623063803543
64.5080635079       0.59566708535
65.0081260158       0.56965374325
65.5081885236       0.544928469851
66.0082510314       0.521403316888
66.5083135392       0.498997039772
67.008376047       0.477634503056
67.5084385548       0.457246141055
68.0085010626       0.43776746828
68.5085635704       0.419138634853
69.0086260783       0.401304022481
69.5086885861       0.384211876983
70.0087510939       0.367813973753
70.5088136017       0.352065312858
71.0088761095       0.336923840827
71.5089386173       0.322350196434
72.0090011251       0.308307478059
72.509063633       0.294761030444
73.0091261408       0.281678248861
73.5091886486       0.269028398899
74.0092511564       0.256782450253
74.5093136642       0.244912923035
75.009376172       0.233393745273
75.5094386798       0.222200120355
76.0095011876       0.211308403327
76.5095636955       0.200695984982
77.0096262033       0.19034118281
77.5096887111       0.180223137917
78.0097512189       0.17032171709
78.5098137267       0.16061741923
79.0098762345       0.151091285421
79.5099387423       0.14172481193
80.0100012502       0.132499865464
80.510063758       0.123398600021
81.0101262658       0.114403374688
81.5101887736       0.105496671739
82.0102512814       0.096661014381
82.5103137892       0.0878788835018
83.010376297       0.0791326327189
83.5104388049       0.0704044010492
84.0105013127       0.0616760224513
84.5105638205       0.0529289314716
85.0106263283       0.0441440641682
85.5106888361       0.035301753435
86.0107513439       0.0263816177799
86.5108138517       0.0173624425403
87.0108763595       0.00822205243479
87.5109388674       -0.0010628257415
88.0110013752       -0.0105167115664
88.511063883       -0.0201655319838
89.0111263908       -0.0300367963476
89.5111888986       -0.0401597871383
90.0112514064       -0.0505657680879
90.5113139142       -0.0612882115516
91.0113764221       -0.0723630470557
91.5114389299       -0.0838289330096
92.0115014377       -0.0957275535872
92.5115639455       -0.108103942726
93.0116264533       -0.121006837042
93.5116889611       -0.13448905915
94.0117514689       -0.148607932397
94.5118139767       -0.163425727183
95.0118764846       -0.179010137941
95.5119389924       -0.195434788052
96.0120015002       -0.21277975762
96.512064008       -0.231132125605
97.0121265158       -0.250586513129
97.5121890236       -0.271245608454
98.0122515314       -0.293220645468
98.5123140393       -0.316631796101
99.0123765471       -0.341608421876
99.5124390549       -0.368289109928
100.012501563       -0.396821393155
100.512564071       -0.427361021356
101.012626578       -0.460070609193
101.512689086       -0.495117436471
102.012751594       -0.532670116439
102.512814102       -0.572893779662
103.01287661       -0.61594334825
103.512939117       -0.66195440598
104.013001625       -0.711031118639
104.513064133       -0.763230650236
105.013126641       -0.818543591674
105.513189149       -0.876870121855
106.013251656       -0.937992024663
106.513314164       -1.00154136508
107.013376672       -1.06696764949
107.51343918       -1.13350667834
108.013501688       -1.20015595946
108.513564196       -1.26566322778
109.013626703       -1.32853581733
109.513689211       -1.38707862708
110.013751719       -1.43946639087
110.513814227       -1.48385131371
111.013876735       -1.51849998603
111.513939242       -1.54194508731
112.01400175       -1.5531301629
112.514064258       -1.55152264549
113.014126766       -1.53717346617
113.514189274       -1.51071112521
114.014251781       -1.47327144935
114.514314289       -1.42637722314
115.014376797       -1.37179040154
115.514439305       -1.31136159951
116.014501813       -1.24689751819
116.514564321       -1.18005932079
117.014626828       -1.11229664416
117.514689336       -1.04481516777
118.014751844       -0.978571492628
118.514814352       -0.914287463459
119.01487686       -0.852476335568
119.514939367       -0.793474518583
120.015001875       -0.737474332685
120.515064383       -0.68455483704
121.015126891       -0.634709111921
121.515189399       -0.58786733428
122.015251906       -0.543915612215
122.515314414       -0.502710906584
123.015376922       -0.464092543537
123.51543943       -0.427890875314
124.015501938       -0.393933628143
124.515564446       -0.362050420325
125.015626953       -0.332075862773
125.515689461       -0.303851581977
126.015751969       -0.277227438456
126.515814477       -0.252062155604
127.015876985       -0.228223525192
127.515939492       -0.205588316286
128.016002       -0.18404198287
128.516064508       -0.163478240925
129.016127016       -0.143798566709
129.516189524       -0.124911653525
130.016252032       -0.10673285336
130.516314539       -0.0891836215937
131.016377047       -0.0721909769634
131.516439555       -0.055686984523
132.016502063       -0.0396082661476
132.516564571       -0.0238955408358
133.016627078       -0.00849319546062
133.516689586       0.0066511144923
134.016752094       0.0215868353932
134.516814602       0.0363608588098
135.01687711       0.0510178396674
135.516939617       0.0656004913154
136.017002125       0.0801498596396
136.517064633       0.0947055783444
137.017127141       0.109306107476
137.517189649       0.123988957178
138.017252157       0.13879089858
138.517314664       0.153748163617
139.017377172       0.168896635494
139.51743968       0.184272031401
140.017502188       0.199910079013
140.517564696       0.215846688233
141.017627203       0.232118119567
141.517689711       0.248761150473
142.017752219       0.265813240973
142.517814727       0.283312699812
143.017877235       0.301298852395
143.517939742       0.319812211767
144.01800225       0.338894653864
144.518064758       0.358589598328
145.018127266       0.378942196171
145.518189774       0.399999525647
146.018252282       0.421810797719
146.518314789       0.444427572621
147.018377297       0.46790398906
147.518439805       0.492297007735
148.018502313       0.517666670963
148.518564821       0.544076380328
149.018627328       0.571593194461
149.518689836       0.600288149195
150.018752344       0.630236602593
150.518814852       0.661518607536
151.01887736       0.694219314853
151.518939867       0.728429410255
152.019002375       0.764245588661
152.519064883       0.801771069888
153.019127391       0.841116160083
153.519189899       0.882398863748
154.019252407       0.925745551726
154.519314914       0.971291691092
155.019377422       1.01918264357
155.51943993       1.06957453977
156.019502438       1.12263523747
156.519564946       1.17854537285
157.019627453       1.23749951487
157.519689961       1.29970743391
158.019752469       1.36539549712
158.519814977       1.43480820412
159.019877485       1.50820987867
159.519939992       1.58588653304
160.0200025       1.6681479239
160.520065008       1.7553298208
161.020127516       1.8477965099
161.520190024       1.94594355848
162.020252532       2.05020086782
162.520315039       2.16103604486
163.020377547       2.27895812553
163.520440055       2.40452168516
164.020502563       2.53833137406
164.520565071       2.68104691809
165.020627578       2.83338862592
165.520690086       2.99614344496
166.020752594       3.1701716074
166.520815102       3.35641390455
167.02087761       3.55589962208
167.520940118       3.76975515857
168.021002625       3.99921333357
168.521065133       4.24562336772
169.021127641       4.51046148203
169.521190149       4.79534201382
170.021252657       5.10202887638
170.521315164       5.43244709331
171.021377672       5.78869400591
171.52144018       6.173049574
172.021502688       6.5879849517
172.521565196       7.03616820329
173.021627703       7.52046560969
173.521690211       8.04393647821
174.021752719       8.60981868093
174.521815227       9.22150128284
175.021877735       9.8824795568
175.521940243       10.59628641
176.02200275       11.366392783
176.522065258       12.1960679987
177.022127766       13.0881894887
177.522190274       14.0449900976
178.022252782       15.0677307581
178.522315289       16.1562874851
179.022377797       17.3086454654
179.522440305       18.5203009287
180.022502813       19.7835851495
180.522565321       21.0869458567
181.022627828       22.4142502235
181.522690336       23.7442091306
182.022752844       25.0500596915
182.522815352       26.2996722483
183.02287786       27.4562540798
183.522940368       28.4797868959
184.023002875       29.3292442515
184.523065383       29.9654872096
185.023127891       30.3545543826
185.523190399       30.4708948274
186.023252907       30.3000033256
186.523315414       29.8399602911
187.023377922       29.1015643325
187.52344043       28.1070288968
188.023502938       26.8875070076
188.523565446       25.4799172889
189.023627953       23.9236147319
189.523690461       22.2573821894
190.023752969       20.5170606879
190.523815477       18.7339527358
191.023877985       16.9339760376
191.523940493       15.137442951
192.024003       13.3592962887
192.524065508       11.6096317958
193.024128016       9.89436384056
193.524190524       8.21592760425
194.024253032       6.57394748562
194.524315539       4.96583185196
195.024378047       3.38727681791
195.524440555       1.83267683713
196.024503063       0.295449007903
196.524565571       -1.23171719489
197.024628079       -2.75667102989
197.524690586       -4.28765829729
198.024753094       -5.83321204139
198.524815602       -7.40206286307
199.02487811       -9.00305588852
199.524940618       -10.6450613691
200.025003125       -12.3368653059
200.525065633       -14.0870253888
201.025128141       -15.9036759911
201.525190649       -17.79426419
202.025253157       -19.7651971803
202.525315664       -21.821380701
203.025378172       -23.965629268
203.52544068       -26.1979336455
204.025503188       -28.5145811965
204.525565696       -30.907143065
205.025628204       -33.3613711258
205.525690711       -35.8560889931
206.025753219       -38.3622143369
206.525815727       -40.8421088067
207.025878235       -43.2495043311
207.525940743       -45.5302793069
208.02600325       -47.6243276295
208.526065758       -49.4686514094
209.026128266       -51.0016038302
209.526190774       -52.1679335525
210.026253282       -52.9240001213
210.526315789       -53.2423374962
211.026378297       -53.1147347922
211.526440805       -52.5532238475
212.026503313       -51.5887707273
212.526565821       -50.26794088
213.026628329       -48.648194038
213.526690836       -46.7926526607
214.026753344       -44.765148447
214.526815852       -42.6261396524
215.02687836       -40.4298055194
215.526940868       -38.2223563897
216.027003375       -36.041406672
216.527065883       -33.9161587887
217.027128391       -31.868125469
217.527190899       -29.9121481268
218.027253407       -28.0575235649
218.527315914       -26.3091099719
219.027378422       -24.6683345885
219.52744093       -23.1340648734
220.027503438       -21.7033321791
220.527565946       -20.3719137743
221.027628454       -19.1347880986
221.527690961       -17.986481894
222.027753469       -16.9213283201
222.527815977       -15.9336537781
223.027878485       -15.017908926
223.527940993       -14.1687568624
224.0280035       -13.3811290354
224.528066008       -12.6502572698
225.028128516       -11.9716884624
225.528191024       -11.3412869738
226.028253532       -10.7552285296
226.52831604       -10.2099884756
227.028378547       -9.70232648977
227.528441055       -9.22926927561
228.028503563       -8.78809233047
228.528566071       -8.37630155244
229.028628579       -7.99161520888
229.528691086       -7.63194660934
230.028753594       -7.29538769614
230.528816102       -6.98019367155
231.02887861       -6.68476871473
231.528941118       -6.40765279509
232.029003625       -6.14750955789
232.529066133       -5.90311523738
233.029128641       -5.67334854074
233.529191149       -5.45718143901
234.029253657       -5.25367079864
234.529316165       -5.06195078715
235.029378672       -4.88122598811
235.52944118       -4.71076516371
236.029503688       -4.5498956067
236.529566196       -4.39799802747
237.029628704       -4.25450192652
237.529691211       -4.11888140611
238.029753719       -3.99065137946
238.529816227       -3.86936413933
239.029878735       -3.75460625149
239.529941243       -3.64599574189
240.03000375       -3.54317954939
240.530066258       -3.44583121871
241.030128766       -3.35364881084
241.530191274       -3.2663530103
242.030253782       -3.18368541091
242.53031629       -3.10540696345
243.030378797       -3.03129657023
243.530441305       -2.96114981301
244.030503813       -2.89477780216
244.530566321       -2.8320061355
245.030628829       -2.7726739567
245.530691336       -2.71663310311
246.030753844       -2.66374733366
246.530816352       -2.61389162737
247.03087886       -2.56695154249
247.530941368       -2.52282262605
248.031003875       -2.48140986184
248.531066383       -2.44262714332
249.031128891       -2.40639675544
249.531191399       -2.37264884542
250.031253907       -2.34132085876
250.531316415       -2.31235691041
251.031378922       -2.28570705491
251.53144143       -2.2613264113
252.031503938       -2.23917409039
252.531566446       -2.21921186471
253.031628954       -2.20140251569
253.531691461       -2.18570779307
254.031753969       -2.17208593122
254.531816477       -2.16048869306
255.031878985       -2.15085796268
255.531941493       -2.14312199085
256.032004001       -2.13719152118
256.532066508       -2.13295618968
257.032129016       -2.13028178534
257.532191524       -2.12900915075
258.032254032       -2.1289556295
258.53231654       -2.1299199442
259.032379047       -2.1316911206
259.532441555       -2.13406149816
260.032504063       -2.13684301191
260.532566571       -2.13988495661
261.032629079       -2.14309064532
261.532691586       -2.14643009011
262.032754094       -2.14994629197
262.532816602       -2.15375390303
263.03287911       -2.15803059349
263.532941618       -2.16300291803
264.033004126       -2.1689293814
264.533066633       -2.17608354226
265.033129141       -2.18473945976
265.533191649       -2.19516087415
266.033254157       -2.20759455634
266.533316665       -2.22226750692
267.033379172       -2.23938723592
267.53344168       -2.25914419214
268.033504188       -2.28171545506
268.533566696       -2.30726895647
269.033629204       -2.33596768567
269.533691711       -2.36797350193
270.033754219       -2.40345030612
270.533816727       -2.44256640433
271.033879235       -2.4854959321
271.533941743       -2.53241920748
272.034004251       -2.58352185071
272.534066758       -2.63899245777
273.034129266       -2.69901855021
273.534191774       -2.7637804549
274.034254282       -2.8334427065
274.53431679       -2.90814253131
275.034379297       -2.98797499172
