#  x                 y             frequency           rot. str.
0.0      -0.324248583235      61.67      -13.89
0.500062507813      -0.328527069705      105.18      -1.27
1.00012501563      -0.332900753473      198.39      -99.73
1.50018752344      -0.337372617974      225.52      44.68
2.00025003125      -0.341945766217      248.19      -3.21
2.50031253907      -0.346623426589      273.28      23.86
3.00037504688      -0.351408958993      359.31      11.95
3.50043755469      -0.356305861331      474.86      -15.47
4.00050006251      -0.361317776369      513.00      9.78
4.50056257032      -0.366448498995      587.65      -76.64
5.00062507813      -0.371701983912      641.39      101.23
5.50068758595      -0.377082353774      745.74      46.45
6.00075009376      -0.382593907817      836.07      -81.01
6.50081260158      -0.388241131005      913.28      14.68
7.00087510939      -0.394028703729      919.49      11.99
7.5009376172      -0.399961512101      1040.77      -115.58
8.00100012502      -0.406044658883      1059.18      36.64
8.50106263283      -0.412283475093      1126.02      -183.98
9.00112514064      -0.418683532334      1161.61      3.54
9.50118764846      -0.425250655912      1193.27      218.49
10.0012501563      -0.431990938782      1241.13      -17.70
10.5013126641      -0.438910756388      1304.57      3.91
11.0013751719      -0.446016782473      1305.83      21.55
11.5014376797      -0.453316005917      1372.48      -8.13
12.0015001875      -0.460815748682      1394.54      -3.79
12.5015626953      -0.468523684959      1446.21      -12.33
13.0016252032      -0.476447861591      1511.66      -0.79
13.501687711      -0.484596719885      1669.38      18.67
14.0017502188      -0.492979118908      1815.77      11.81
14.5018127266      -0.501604360394      3014.51      4.28
15.0018752344      -0.510482215374      3025.70      10.45
15.5019377422      -0.519622952687      3064.71      3.73
16.00200025      -0.529037369494      3492.20      -1.83
16.5020627578      -0.538736823988      3560.11      0.49
17.0021252657      -0.548733270451      3722.56      2.13
17.5021877735      -0.559039296865      3823.20      -1.72
18.0022502813       -0.569668165293
18.5023127891       -0.580633855245
19.0023752969       -0.591951110292
19.5024378047       -0.60363548821
20.0025003125       -0.615703414942
20.5025628204       -0.628172242712
21.0026253282       -0.641060312674
21.502687836       -0.65438702246
22.0027503438       -0.668172899102
22.5028128516       -0.682439677774
23.0028753594       -0.697210386911
23.5029378672       -0.712509440276
24.003000375       -0.728362736607
24.5030628829       -0.744797767569
25.0031253907       -0.761843734775
25.5031878985       -0.779531676746
26.0032504063       -0.797894606756
26.5033129141       -0.816967662606
27.0033754219       -0.836788269506
27.5034379297       -0.857396317331
28.0035004376       -0.878834353686
28.5035629454       -0.901147794354
29.0036254532       -0.924385152879
29.503687961       -0.948598291223
30.0037504688       -0.973842693647
30.5038129766       -1.00017776622
31.0038754844       -1.02766716461
31.5039379922       -1.05637915308
32.0040005001       -1.08638699803
32.5040630079       -1.11776939971
33.0041255157       -1.15061096608
33.5041880235       -1.18500273354
34.0042505313       -1.22104273922
34.5043130391       -1.25883665074
35.0043755469       -1.29849845936
35.5044380548       -1.3401512435
36.0045005626       -1.38392801013
36.5045630704       -1.42997262256
37.0046255782       -1.47844082365
37.504688086       -1.52950136484
38.0047505938       -1.58333725199
38.5048131016       -1.64014712023
39.0048756095       -1.70014675104
39.5049381173       -1.76357074567
40.0050006251       -1.83067437007
40.5050631329       -1.90173558718
41.0051256407       -1.97705729307
41.5051881485       -2.0569697733
42.0052506563       -2.14183339584
42.5053131641       -2.23204155494
43.005375672       -2.32802387817
43.5054381798       -2.43024970423
44.0055006876       -2.53923183225
44.5055631954       -2.655530533
45.0056257032       -2.77975779767
45.505688211       -2.91258177845
46.0057507188       -3.05473134593
46.5058132267       -3.20700064748
47.0058757345       -3.37025349544
47.5059382423       -3.54542733932
48.0060007501       -3.73353647665
48.5060632579       -3.93567402522
49.0061257657       -4.15301200748
49.5061882735       -4.38679867532
50.0062507813       -4.63835192007
50.5063132892       -4.90904725862
51.006375797       -5.20029845297
51.5064383048       -5.51352830737
52.0065008126       -5.85012660503
52.5065633204       -6.21139152915
53.0066258282       -6.59845033412
53.506688336       -7.01215462064
54.0067508439       -7.45294553987
54.5068133517       -7.92068493057
55.0068758595       -8.41445023935
55.5069383673       -8.93229467007
56.0070008751       -9.47097999967
56.5070633829       -10.025698422
57.0071258907       -10.5898117456
57.5071883985       -11.1546504591
58.0072509064       -11.7094292284
58.5073134142       -12.2413449354
59.007375922       -12.7359221001
59.5074384298       -13.1776515379
60.0075009376       -13.5509267189
60.5075634454       -13.8412202384
61.0076259532       -14.0363715882
61.5076884611       -14.127798261
62.0077509689       -14.1114199743
62.5078134767       -13.9881176669
63.0078759845       -13.7636335836
63.5079384923       -13.4479331157
64.0080010001       -13.0541567667
64.5080635079       -12.5973583275
65.0081260158       -12.0932372514
65.5081885236       -11.5570354075
66.0082510314       -11.0027021558
66.5083135392       -10.4423617008
67.008376047       -9.88606111185
67.5084385548       -9.34174409524
68.0085010626       -8.81538355558
68.5085635704       -8.31120931033
69.0086260783       -7.83197907913
69.5086885861       -7.37925535691
70.0087510939       -6.95366436371
70.5088136017       -6.55512419518
71.0088761095       -6.18303715028
71.5089386173       -5.83644629133
72.0090011251       -5.51415920145
72.509063633       -5.21484328
73.0091261408       -4.93709730256
73.5091886486       -4.67950377753
74.0092511564       -4.44066614193
74.5093136642       -4.21923423439
75.009376172       -4.01392087357
75.5094386798       -3.82351180906
76.0095011876       -3.64687082632
76.5095636955       -3.48294138261
77.0096262033       -3.33074582218
77.5096887111       -3.18938295867
78.0097512189       -3.05802460887
78.5098137267       -2.93591150522
79.0098762345       -2.8223488949
79.5099387423       -2.71670204338
80.0100012502       -2.6183917927
80.510063758       -2.52689027579
81.0101262658       -2.44171685109
81.5101887736       -2.3624342959
82.0102512814       -2.28864527837
82.5103137892       -2.21998911456
83.010376297       -2.15613880853
83.5104388049       -2.09679836742
84.0105013127       -2.04170037975
84.5105638205       -1.99060384323
85.0106263283       -1.94329222725
85.5106888361       -1.89957175495
86.0107513439       -1.85926988996
86.5108138517       -1.82223401332
87.0108763595       -1.78833027641
87.5109388674       -1.75744261614
88.0110013752       -1.72947191879
88.511063883       -1.70433531839
89.0111263908       -1.6819656148
89.5111888986       -1.66231079465
90.0112514064       -1.64533363587
90.5113139142       -1.63101137193
91.0113764221       -1.6193353862
91.5114389299       -1.61031089823
92.0115014377       -1.60395659259
92.5115639455       -1.60030412568
93.0116264533       -1.59939742607
93.5116889611       -1.60129167886
94.0117514689       -1.60605185236
94.5118139767       -1.6137505864
95.0118764846       -1.62446521498
95.5119389924       -1.63827364321
96.0120015002       -1.65524874224
96.512064008       -1.67545087318
97.0121265158       -1.69891811337
97.5121890236       -1.72565375536
98.0122515314       -1.75561071079
98.5123140393       -1.78867261862
99.0123765471       -1.82463178498
99.5124390549       -1.86316462692
100.012501563       -1.90380610646
100.512564071       -1.94592573259
101.012626578       -1.98870900527
101.512689086       -2.03114946177
102.012751594       -2.07205736474
102.512814102       -2.11009096751
103.01287661       -2.14381457297
103.512939117       -2.17178383795
104.013001625       -2.19265311482
104.513064133       -2.20529310998
105.013126641       -2.20890171024
105.513189149       -2.20308875339
106.013251656       -2.18791838606
106.513314164       -2.16390035512
107.013376672       -2.13193202414
107.51343918       -2.09320277484
108.013501688       -2.04907868756
108.513564196       -2.00098653066
109.013626703       -1.95031266523
109.513689211       -1.89832642875
110.013751719       -1.84613115652
110.513814227       -1.79464090223
111.013876735       -1.74457785493
111.513939242       -1.6964843323
112.01400175       -1.65074352465
112.514064258       -1.60760423446
113.014126766       -1.56720618061
113.514189274       -1.52960367994
114.014251781       -1.49478652114
114.514314289       -1.46269756601
115.014376797       -1.43324708
115.514439305       -1.40632406123
116.014501813       -1.38180496414
116.514564321       -1.35956024985
117.014626828       -1.33945917791
117.514689336       -1.32137320935
118.014751844       -1.30517833594
118.514814352       -1.29075659465
119.01487686       -1.27799697502
119.514939367       -1.26679588254
120.015001875       -1.25705728431
120.515064383       -1.24869263291
121.015126891       -1.24162064081
121.515189399       -1.23576695858
122.015251906       -1.23106379625
122.515314414       -1.22744951593
123.015376922       -1.2248682155
123.51543943       -1.22326931722
124.015501938       -1.22260717045
124.515564446       -1.22284067418
125.015626953       -1.22393292306
125.515689461       -1.22585087837
126.015751969       -1.22856506465
126.515814477       -1.23204929167
127.015876985       -1.23628040073
127.515939492       -1.24123803437
128.016002       -1.24690442785
128.516064508       -1.25326422113
129.016127016       -1.2603042898
129.516189524       -1.26801359338
130.016252032       -1.27638303982
130.516314539       -1.28540536468
131.016377047       -1.29507502382
131.516439555       -1.3053880986
132.016502063       -1.31634221225
132.516564571       -1.32793645684
133.016627078       -1.3401713297
133.516689586       -1.35304867868
134.016752094       -1.36657165555
134.516814602       -1.3807446769
135.01687711       -1.39557339203
135.516939617       -1.41106465732
136.017002125       -1.42722651681
136.517064633       -1.44406818838
137.017127141       -1.46160005548
137.517189649       -1.47983366402
138.017252157       -1.49878172424
138.517314664       -1.51845811734
139.017377172       -1.53887790683
139.51743968       -1.56005735439
140.017502188       -1.58201394032
140.517564696       -1.60476638831
141.017627203       -1.62833469483
141.517689711       -1.65274016285
142.017752219       -1.67800544026
142.517814727       -1.70415456275
143.017877235       -1.73121300157
143.517939742       -1.75920771606
144.01800225       -1.78816721129
144.518064758       -1.8181216009
145.018127266       -1.84910267541
145.518189774       -1.88114397633
146.018252282       -1.9142808762
146.518314789       -1.94855066504
147.018377297       -1.98399264349
147.518439805       -2.02064822309
148.018502313       -2.05856103411
148.518564821       -2.09777704144
149.018627328       -2.13834466906
149.518689836       -2.18031493368
150.018752344       -2.22374158826
150.518814852       -2.26868127598
151.01887736       -2.31519369554
151.518939867       -2.36334177863
152.019002375       -2.41319188044
152.519064883       -2.46481398418
153.019127391       -2.5182819209
153.519189899       -2.57367360551
154.019252407       -2.63107129066
154.519314914       -2.69056183957
155.019377422       -2.75223701967
155.51943993       -2.81619381858
156.019502438       -2.88253478443
156.519564946       -2.95136839254
157.019627453       -3.02280944064
157.519689961       -3.09697947535
158.019752469       -3.17400725234
158.519814977       -3.25402923342
159.019877485       -3.33719012376
159.519939992       -3.42364345276
160.0200025       -3.51355220278
160.520065008       -3.60708948989
161.020127516       -3.70443930167
161.520190024       -3.80579729729
162.020252532       -3.91137167574
162.520315039       -4.02138411891
163.020377547       -4.13607081639
163.520440055       -4.25568358032
164.020502563       -4.38049105883
164.520565071       -4.51078005789
165.020627578       -4.64685698248
165.520690086       -4.78904940892
166.020752594       -4.93770780179
166.520815102       -5.09320739009
167.02087761       -5.25595021912
167.520940118       -5.42636739621
168.021002625       -5.60492155061
168.521065133       -5.79210953
169.021127641       -5.98846535857
169.521190149       -6.19456348465
170.021252657       -6.41102234853
170.521315164       -6.63850830513
171.021377672       -6.87773993948
171.52144018       -7.12949281745
172.021502688       -7.39460471883
172.521565196       -7.67398140477
173.021627703       -7.96860297728
173.521690211       -8.2795308944
174.021752719       -8.60791571122
174.521815227       -8.95500562348
175.021877735       -9.32215589808
175.521940243       -9.7108392817
176.02200275       -10.1226574863
176.522065258       -10.5593538571
177.022127766       -11.0228273349
177.522190274       -11.5151478284
178.022252782       -12.038573116
178.522315289       -12.5955673934
179.022377797       -13.1888215767
179.522440305       -13.8212754565
180.022502813       -14.4961417724
180.522565321       -15.2169322334
181.022627828       -15.9874854515
181.522690336       -16.8119966567
182.022752844       -17.695048937
182.522815352       -18.641645554
183.02287786       -19.6572426348
183.522940368       -20.7477811839
184.023002875       -21.9197168871
184.523065383       -23.1800455407
185.023127891       -24.5363210948
185.523190399       -25.9966621865
186.023252907       -27.5697416008
186.523315414       -29.264751246
187.023377922       -31.0913329029
187.52344043       -33.0594621327
188.023502938       -35.1792692692
188.523565446       -37.4607774257
189.023627953       -39.9135330724
189.523690461       -42.5461003853
190.023752969       -45.3653869775
190.523815477       -48.3757670647
191.023877985       -51.5779705908
191.523940493       -54.967716233
192.024003       -58.534086374
192.524065508       -62.2576776208
193.024128016       -66.1086156403
193.524190524       -70.044600371
194.024253032       -74.0092443698
194.524315539       -77.9310712575
195.024378047       -81.7236276553
195.524440555       -85.2871904878
196.024503063       -88.5124723651
196.524565571       -91.286497672
197.024628079       -93.5004310312
197.524690586       -95.058640221
198.024753094       -95.8877941882
198.524815602       -95.9445094648
199.02487811       -95.2201217053
199.524940618       -93.7416247123
200.025003125       -91.5685822449
200.525065633       -88.7866434951
201.025128141       -85.4989182794
201.525190649       -81.8167193957
202.025253157       -77.8510389005
202.525315664       -73.705710373
203.025378172       -69.4726981607
203.52544068       -65.2295025253
204.025503188       -61.0383634562
204.525565696       -56.9468012864
205.025628204       -52.989017424
205.525690711       -49.1877440398
206.025753219       -45.5562316272
206.525815727       -42.1001657232
207.025878235       -38.8193911083
207.525940743       -35.7093871186
208.02600325       -32.7624818169
208.526065758       -29.968819454
209.026128266       -27.3171095344
209.526190774       -24.7951911173
210.026253282       -22.3904460946
210.526315789       -20.0900924811
211.026378297       -17.8813848259
211.526440805       -15.7517446901
212.026503313       -13.6888402847
212.526565821       -11.6806311128
213.026628329       -9.71539091961
213.526690836       -7.7817204638
214.026753344       -5.86856054405
214.526815852       -3.96521532309
215.02687836       -2.06139621802
215.526940868       -0.147297400439
216.027003375       1.78628484883
216.527065883       3.74777525291
217.027128391       5.74457010813
217.527190899       7.78269959648
218.027253407       9.86638688866
218.527315914       11.9974925172
219.027378422       14.1748402371
219.52744093       16.393434631
220.027503438       18.6436031012
220.527565946       20.9101270393
221.027628454       23.1714684082
221.527690961       25.3992446254
222.027753469       27.5581468228
222.527815977       29.6065179137
223.027878485       31.4977857608
223.527940993       33.1828620261
224.0280035       34.6134594508
224.528066008       35.7460647212
225.028128516       36.5460793442
225.528191024       36.9914825519
226.028253532       37.0753542153
226.52831604       36.8067602979
227.028378547       36.2098196786
227.528441055       35.3211455439
228.028503563       34.1861670796
228.528566071       32.8549958794
229.028628579       31.378479878
229.528691086       29.8049257398
230.028753594       28.1777451089
230.528816102       26.5340658465
231.02887861       24.9041938771
231.528941118       23.311728891
232.029003625       21.7741177726
232.529066133       20.3034519944
233.029128641       18.9073577728
233.529191149       17.5898743847
234.029253657       16.3522572213
234.529316165       15.1936739639
235.029378672       14.1117843267
235.52944118       13.1032075773
236.029503688       12.1638895505
236.529566196       11.2893840989
237.029628704       10.4750644866
237.529691211       9.7162792953
238.029753719       9.0084657786
238.529816227       8.34723175621
239.029878735       7.72841535718
239.529941243       7.14813032946
240.03000375       6.60280325324
240.530066258       6.08920778592
241.030128766       5.60449992954
241.530191274       5.14625711094
242.030253782       4.71252243034
242.53031629       4.30185358491
243.030378797       3.91337355741
243.530441305       3.54681712814
244.030503813       3.20256379269
244.530566321       2.88164428016
245.030628829       2.58570556796
245.530691336       2.31691952882
246.030753844       2.07782471453
246.530816352       1.87110034261
247.03087886       1.69928589605
247.530941368       1.56447618966
248.031003875       1.46803538022
248.531066383       1.4103784626
249.031128891       1.39086133963
249.531191399       1.40780092265
250.031253907       1.45862027539
250.531316415       1.54008896784
251.031378922       1.64861324103
251.53144143       1.78052792246
252.031503938       1.93235083798
252.531566446       2.10097580026
253.031628954       2.28379642139
253.531691461       2.47876581003
254.031753969       2.68440487619
254.531816477       2.89977472034
255.031878985       3.1244277921
255.531941493       3.35834976987
256.032004001       3.60190074915
256.532066508       3.85576116896
257.032129016       4.12088535163
257.532191524       4.39846367431
258.032254032       4.68989315628
258.53231654       4.99675548669
259.032379047       5.32080108092
259.532441555       5.66393750303
260.032504063       6.02822042254
260.532566571       6.41584510466
261.032629079       6.82913620731
261.532691586       7.27053333174
262.032754094       7.74256931688
262.532816602       8.24783765896
263.03287911       8.78894467269
263.532941618       9.36844110283
264.033004126       9.98872689996
264.533066633       10.6519219024
265.033129141       11.3596944273
265.533191649       12.1130396072
266.033254157       12.9120002474
266.533316665       13.7553257622
267.033379172       14.6400703628
267.53344168       15.5611412038
268.033504188       16.5108216496
268.533566696       17.4783145495
269.033629204       18.449374339
269.533691711       19.4061213923
270.033754219       20.3271504137
270.533816727       21.1880464318
271.033879235       21.9623951665
271.533941743       22.6233100633
272.034004251       23.1453967434
272.534066758       23.5069537524
273.034129266       23.6921004042
273.534191774       23.6924710213
274.034254282       23.5081532133
274.53431679       23.1476799274
275.034379297       22.6270769618
