#  x                 y             frequency           rot. str.
0.0      -0.0363239624125      82.39      3.10
0.500062507813      -0.0364206979729      124.71      -11.17
1.00012501563      -0.0365159277471      206.89      -0.50
1.50018752344      -0.0366095705228      276.36      -17.88
2.00025003125      -0.0367015417865      307.58      -52.48
2.50031253907      -0.0367917535826      329.45      39.20
3.00037504688      -0.0368801143673      372.04      33.40
3.50043755469      -0.0369665288539      484.31      -34.76
4.00050006251      -0.0370508978518      554.57      3.74
4.50056257032      -0.0371331180978      650.25      -73.23
5.00062507813      -0.0372130820791      754.92      100.95
5.50068758595      -0.0372906778479      780.67      -6.41
6.00075009376      -0.0373657888269      825.77      6.32
6.50081260158      -0.0374382936058      882.47      -13.43
7.00087510939      -0.0375080657274      945.74      38.48
7.5009376172      -0.0375749734638      1001.46      -49.33
8.00100012502      -0.0376388795808      1047.75      -0.56
8.50106263283      -0.0376996410911      1102.45      -25.08
9.00112514064      -0.0377571089957      1158.05      21.19
9.50118764846      -0.0378111280112      1202.81      198.60
10.0012501563      -0.0378615362846      1265.01      -23.39
10.5013126641      -0.0379081650929      1326.81      13.75
11.0013751719      -0.0379508385275      1350.67      -20.52
11.5014376797      -0.0379893731628      1372.27      -134.49
12.0015001875      -0.0380235777076      1395.36      125.07
12.5015626953      -0.0380532526386      1421.86      -84.15
13.0016252032      -0.0380781898142      1502.43      8.32
13.501687711      -0.038098172069      1662.68      -14.78
14.0017502188      -0.0381129727867      1846.61      -56.56
14.5018127266      -0.0381223554499      2969.60      16.93
15.0018752344      -0.0381260731663      3025.62      1.98
15.5019377422      -0.0381238681701      3114.83      1.18
16.00200025      -0.0381154712951      3484.91      6.05
16.5020627578      -0.038100601421      3556.62      -10.65
17.0021252657      -0.0380789648882      3584.72      15.38
17.5021877735      -0.0380502548808      3786.44      -2.26
18.0022502813       -0.0380141507759
18.5023127891       -0.0379703174566
19.0023752969       -0.0379184045865
19.5024378047       -0.037858045843
20.0025003125       -0.0377888581082
20.5025628204       -0.0377104406128
21.0026253282       -0.0376223740312
21.502687836       -0.0375242195244
22.0027503438       -0.0374155177272
22.5028128516       -0.0372957876763
23.0028753594       -0.0371645256749
23.5029378672       -0.0370212040903
24.003000375       -0.0368652700798
24.5030628829       -0.0366961442395
25.0031253907       -0.0365132191716
25.5031878985       -0.0363158579644
26.0032504063       -0.036103392579
26.5033129141       -0.0358751221358
27.0033754219       -0.0356303110947
27.5034379297       -0.035368187321
28.0035004376       -0.0350879400289
28.5035629454       -0.0347887175939
29.0036254532       -0.0344696252256
29.503687961       -0.034129722489
30.0037504688       -0.0337680206652
30.5038129766       -0.0333834799382
31.0038754844       -0.0329750063966
31.5039379922       -0.032541448834
32.0040005001       -0.0320815953361
32.5040630079       -0.0315941696352
33.0041255157       -0.031077827217
33.5041880235       -0.0305311511588
34.0042505313       -0.0299526476796
34.5043130391       -0.0293407413785
35.0043755469       -0.0286937701378
35.5044380548       -0.0280099796633
36.0045005626       -0.0272875176341
36.5045630704       -0.026524427428
37.0046255782       -0.0257186413911
37.504688086       -0.0248679736116
38.0047505938       -0.0239701121572
38.5048131016       -0.0230226107333
39.0048756095       -0.0220228797102
39.5049381173       -0.0209681764681
40.0050006251       -0.019855595
40.5050631329       -0.0186820547099
41.0051256407       -0.0174442883338
41.5051881485       -0.0161388289091
42.0052506563       -0.014761995706
42.5053131641       -0.0133098790285
43.005375672       -0.0117783237842
43.5054381798       -0.0101629117086
44.0055006876       -0.00845894212232
44.5055631954       -0.00666141108405
45.0056257032       -0.00476498879018
45.505688211       -0.00276399505506
46.0057507188       -0.000652372689806
46.5058132267       0.00157634142194
47.0058757345       0.00392904777426
47.5059382423       0.00641311846153
48.0060007501       0.00903643444605
48.5060632579       0.0118074261729
49.0061257657       0.0147351178669
49.5061882735       0.0178291758822
50.0062507813       0.0210999615172
50.5063132892       0.024558588752
51.006375797       0.0282169874141
51.5064383048       0.0320879723396
52.0065008126       0.0361853191539
52.5065633204       0.0405238473697
53.0066258282       0.0451195115771
53.506688336       0.049989501588
54.0067508439       0.0551523524901
54.5068133517       0.0606280656775
55.0068758595       0.0664382420401
55.5069383673       0.0726062286246
56.0070008751       0.0791572802243
56.5070633829       0.0861187375146
57.0071258907       0.0935202235179
57.5071883985       0.101393860373
58.0072509064       0.109774508581
58.5073134142       0.118700031114
59.007375922       0.12821158499
59.5074384298       0.138353943156
60.0075009376       0.149175849731
60.5075634454       0.160730411905
61.0076259532       0.173075531934
61.5076884611       0.186274382871
62.0077509689       0.200395931703
62.5078134767       0.215515513536
63.0078759845       0.23171546026
63.5079384923       0.249085786668
64.0080010001       0.267724936196
64.5080635079       0.287740587207
65.0081260158       0.309250518749
65.5081885236       0.332383531942
66.0082510314       0.357280419017
66.5083135392       0.384094966386
67.008376047       0.412994970154
67.5084385548       0.44416323171
68.0085010626       0.47779848635
68.5085635704       0.514116198277
69.0086260783       0.553349129222
69.5086885861       0.595747553711
70.0087510939       0.641578949483
70.5088136017       0.691126934562
71.0088761095       0.744689150567
71.5089386173       0.80257370293
72.0090011251       0.865093661855
72.509063633       0.932559003942
73.0091261408       1.00526523873
73.5091886486       1.08347782878
74.0092511564       1.16741139905
74.5093136642       1.25720268051
75.009376172       1.35287620488
75.5094386798       1.4543020516
76.0095011876       1.56114556372
76.5095636955       1.67281003621
77.0096262033       1.78837507709
77.5096887111       1.90653572398
78.0097512189       2.02555039067
78.5098137267       2.14320895947
79.0098762345       2.25683505319
79.5099387423       2.36333747907
80.0100012502       2.45932349548
80.510063758       2.54127954755
81.0101262658       2.60581309872
81.5101887736       2.64993370936
82.0102512814       2.67133645848
82.5103137892       2.66864162047
83.010376297       2.64154611941
83.5104388049       2.59085641725
84.0105013127       2.51839602772
84.5105638205       2.42680657453
85.0106263283       2.31928102201
85.5106888361       2.19927589043
86.0107513439       2.07024521243
86.5108138517       1.93542626837
87.0108763595       1.7976912632
87.5109388674       1.65946495215
88.0110013752       1.52269855853
88.511063883       1.38888569473
89.0111263908       1.25910544053
89.5111888986       1.13407971887
90.0112514064       1.01423520509
90.5113139142       0.899763195273
91.0113764221       0.790673581956
91.5114389299       0.686841135188
92.0115014377       0.588043675115
92.5115639455       0.493992563911
93.0116264533       0.404356384226
93.5116889611       0.318778840208
94.0117514689       0.236891920537
94.5118139767       0.15832527584
95.0118764846       0.0827126350792
95.5119389924       0.00969594749681
96.0120015002       -0.0610721946451
96.512064008       -0.12992741364
97.0121265158       -0.197193343957
97.5121890236       -0.26318211056
98.0122515314       -0.328195293552
98.5123140393       -0.392525235973
99.0123765471       -0.456456591493
99.5124390549       -0.520268039413
100.012501563       -0.584234117883
100.512564071       -0.648627144045
101.012626578       -0.713719203274
101.512689086       -0.77978419981
102.012751594       -0.847099968671
102.512814102       -0.915950454416
103.01287661       -0.986627966492
103.512939117       -1.05943552391
104.013001625       -1.13468930405
104.513064133       -1.21272121146
105.013126641       -1.29388158297
105.513189149       -1.37854204445
106.013251656       -1.46709853287
106.513314164       -1.55997449366
107.013376672       -1.65762425806
107.51343918       -1.7605365967
108.013501688       -1.86923843382
108.513564196       -1.98429868987
109.013626703       -2.10633219631
109.513689211       -2.23600359462
110.013751719       -2.37403108738
110.513814227       -2.52118985029
111.013876735       -2.67831483495
111.513939242       -2.84630258825
112.01400175       -3.02611157772
112.514064258       -3.21876033596
113.014126766       -3.42532251296
113.514189274       -3.64691764365
114.014251781       -3.88469609415
114.514314289       -4.13981624081
115.014376797       -4.41341147116
115.514439305       -4.7065440999
116.014501813       -5.02014282272
116.514564321       -5.35491998666
117.014626828       -5.71126490554
117.514689336       -6.08910994885
118.014751844       -6.48776754329
118.514814352       -6.90573901212
119.01487686       -7.34050085664
119.514939367       -7.78828110119
120.015001875       -8.2438477971
120.515064383       -8.70034311604
121.015126891       -9.14920785806
121.515189399       -9.58024924532
122.015251906       -9.98190458515
122.515314414       -10.3417391748
123.015376922       -10.6471847306
123.51543943       -10.8864756002
124.015501938       -11.0496827689
124.515564446       -11.129696873
125.015626953       -11.1229910947
125.515689461       -11.0300174899
126.015751969       -10.8551560405
126.515814477       -10.6062269778
127.015876985       -10.2936647776
127.515939492       -9.92950932238
128.016002       -9.52638221378
128.516064508       -9.09658794464
129.016127016       -8.65142723012
129.516189524       -8.20075318574
130.016252032       -7.75275532994
130.516314539       -7.3139284208
131.016377047       -6.88917246678
131.516439555       -6.48197230523
132.016502063       -6.09461431472
132.516564571       -5.72840944335
133.016627078       -5.38390276177
133.516689586       -5.06105869631
134.016752094       -4.75941756817
134.516814602       -4.47822327871
135.01687711       -4.216524417
135.516939617       -3.97325223721
136.017002125       -3.74727930369
136.517064633       -3.53746246735
137.017127141       -3.34267345329
137.517189649       -3.16181985653
138.017252157       -2.99385885039
138.517314664       -2.83780545786
139.017377172       -2.69273684152
139.51743968       -2.55779373791
140.017502188       -2.4321798944
140.517564696       -2.31516015371
141.017627203       -2.2060576649
141.517689711       -2.10425057109
142.017752219       -2.00916842639
142.517814727       -1.92028852077
143.017877235       -1.83713223617
143.517939742       -1.7592615167
144.01800225       -1.68627550572
144.518064758       -1.61780738078
145.018127266       -1.55352140257
145.518189774       -1.49311018257
146.018252282       -1.43629216707
146.518314789       -1.38280933026
147.018377297       -1.33242506603
147.518439805       -1.28492226607
148.018502313       -1.24010157143
148.518564821       -1.19777978405
149.018627328       -1.15778842523
149.518689836       -1.11997242849
150.018752344       -1.08418895466
150.518814852       -1.05030631835
151.01887736       -1.0182030151
151.518939867       -0.987766839918
152.019002375       -0.958894088418
152.519064883       -0.9314888325
153.019127391       -0.905462263476
153.519189899       -0.880732096024
154.019252407       -0.857222027059
154.519314914       -0.834861244183
155.019377422       -0.813583978889
155.51943993       -0.793329100194
156.019502438       -0.774039744768
156.519564946       -0.755662980074
157.019627453       -0.73814949734
157.519689961       -0.721453331521
158.019752469       -0.705531605706
158.519814977       -0.690344297657
159.019877485       -0.675854026414
159.519939992       -0.662025857117
160.0200025       -0.648827122345
160.520065008       -0.636227258487
161.020127516       -0.624197655769
161.520190024       -0.612711520719
162.020252532       -0.601743749964
162.520315039       -0.591270814361
163.020377547       -0.581270652562
163.520440055       -0.571722573203
164.020502563       -0.562607164986
164.520565071       -0.553906213986
165.020627578       -0.54560262759
165.520690086       -0.537680364522
166.020752594       -0.530124370474
166.520815102       -0.522920518895
167.02087761       -0.51605555654
167.520940118       -0.509517053423
168.021002625       -0.503293356851
168.521065133       -0.497373549244
169.021127641       -0.491747409477
169.521190149       -0.486405377518
170.021252657       -0.481338522147
170.521315164       -0.476538511565
171.021377672       -0.471997586744
171.52144018       -0.467708537353
172.021502688       -0.463664680149
172.521565196       -0.45985983973
173.021627703       -0.456288331538
173.521690211       -0.452944947072
174.021752719       -0.449824941221
174.521815227       -0.446924021701
175.021877735       -0.444238340566
175.521940243       -0.441764487773
176.02200275       -0.439499486829
176.522065258       -0.437440792528
177.022127766       -0.435586290829
177.522190274       -0.433934300938
178.022252782       -0.432483579662
178.522315289       -0.431233328155
179.022377797       -0.430183201152
179.522440305       -0.429333318861
180.022502813       -0.428684281666
180.522565321       -0.428237187842
181.022627828       -0.427993654509
181.522690336       -0.427955842078
182.022752844       -0.428126482477
182.522815352       -0.42850891148
183.02287786       -0.429107105498
183.522940368       -0.429925723236
184.023002875       -0.430970152635
184.523065383       -0.432246563595
185.023127891       -0.433761966972
185.523190399       -0.435524280406
186.023252907       -0.437542401529
186.523315414       -0.43982628916
187.023377922       -0.442387053029
187.52344043       -0.445237052596
188.023502938       -0.448390005412
188.523565446       -0.451861105372
189.023627953       -0.455667150979
189.523690461       -0.459826683433
190.023752969       -0.464360133903
190.523815477       -0.46928997866
191.023877985       -0.474640899839
191.523940493       -0.480439948295
192.024003       -0.486716703265
192.524065508       -0.493503421167
193.024128016       -0.500835162663
193.524190524       -0.508749882868
194.024253032       -0.517288464046
194.524315539       -0.526494662864
195.024378047       -0.536414935037
195.524440555       -0.547098088493
196.024503063       -0.558594701805
196.524565571       -0.570956227245
197.024628079       -0.584233677826
197.524690586       -0.598475775727
198.024753094       -0.613726417704
198.524815602       -0.630021295065
199.02487811       -0.647383498047
199.524940618       -0.665817946865
200.025003125       -0.685304538901
200.525065633       -0.705790002766
201.025128141       -0.727178628078
201.525190649       -0.74932231676
202.025253157       -0.772010789364
202.525315664       -0.79496326491
203.025378172       -0.817823455156
203.52544068       -0.840160147123
204.025503188       -0.861475789661
204.525565696       -0.881225101526
205.025628204       -0.89884456318
205.525690711       -0.91379169286
206.025753219       -0.92559050216
206.525815727       -0.933877113773
207.025878235       -0.938438086505
207.525940743       -0.939234314854
208.02600325       -0.93640570902
208.526065758       -0.930255688271
209.026128266       -0.921218658926
209.526190774       -0.909816779206
210.026253282       -0.896613569255
210.526315789       -0.882171215543
211.026378297       -0.867016337851
211.526440805       -0.851616424631
212.026503313       -0.836366877327
212.526565821       -0.821587071079
213.026628329       -0.807523115738
213.526690836       -0.794354927954
214.026753344       -0.782205554203
214.526815852       -0.77115118652
215.02687836       -0.761230825816
215.526940868       -0.752454983755
216.027003375       -0.744813141256
216.527065883       -0.738279902551
217.027128391       -0.73281991717
217.527190899       -0.728391711404
218.027253407       -0.724950597049
218.527315914       -0.722450825183
219.027378422       -0.720847138422
219.52744093       -0.720095854435
220.027503438       -0.720155591268
220.527565946       -0.720987723984
221.027628454       -0.722556643488
221.527690961       -0.724829872672
222.027753469       -0.727778082109
222.527815977       -0.731375037216
223.027878485       -0.735597500697
223.527940993       -0.740425107792
224.0280035       -0.745840227045
224.528066008       -0.751827815695
225.028128516       -0.75837527604
225.528191024       -0.76547231713
226.028253532       -0.773110824637
226.52831604       -0.781284740717
227.028378547       -0.789989954858
227.528441055       -0.79922420623
228.028503563       -0.80898699763
228.528566071       -0.819279520909
229.028628579       -0.830104593611
229.528691086       -0.841466606444
230.028753594       -0.853371481209
230.528816102       -0.86582663876
231.02887861       -0.878840976644
231.528941118       -0.892424856045
232.029003625       -0.906590097762
232.529066133       -0.921349986974
233.029128641       -0.936719286603
233.529191149       -0.952714259181
234.029253657       -0.969352697152
234.529316165       -0.98665396165
235.029378672       -1.00463902982
235.52944118       -1.02333055089
236.029503688       -1.04275291114
236.529566196       -1.06293230822
237.029628704       -1.08389683506
237.529691211       -1.10567657394
238.029753719       -1.12830370129
238.529816227       -1.15181260375
239.029878735       -1.17624000645
239.529941243       -1.20162511418
240.03000375       -1.22800976649
240.530066258       -1.25543860788
241.030128766       -1.28395927424
241.530191274       -1.31362259693
242.030253782       -1.34448282613
242.53031629       -1.37659787504
243.030378797       -1.41002958707
243.530441305       -1.44484402798
244.030503813       -1.48111180547
244.530566321       -1.5189084189
245.030628829       -1.55831464203
245.530691336       -1.59941694221
246.030753844       -1.64230793964
246.530816352       -1.68708691075
247.03087886       -1.73386034038
247.530941368       -1.78274252778
248.031003875       -1.83385625202
248.531066383       -1.88733350326
249.031128891       -1.94331628658
249.531191399       -2.00195750645
250.031253907       -2.06342194014
250.531316415       -2.12788730977
251.031378922       -2.19554546347
251.53144143       -2.26660367726
252.031503938       -2.34128609046
252.531566446       -2.41983528871
253.031628954       -2.50251404986
253.531691461       -2.58960726945
254.031753969       -2.68142408377
254.531816477       -2.77830020967
255.031878985       -2.88060052156
255.531941493       -2.98872188665
256.032004001       -3.10309627992
256.532066508       -3.22419420017
257.032129016       -3.35252840686
257.532191524       -3.48865799486
258.032254032       -3.63319281946
258.53231654       -3.78679827608
259.032379047       -3.95020042773
259.532441555       -4.12419145604
260.032504063       -4.30963538747
260.532566571       -4.50747401232
261.032629079       -4.7187328667
261.532691586       -4.94452708354
262.032754094       -5.18606683101
262.532816602       -5.44466194052
263.03287911       -5.72172517094
263.532941618       -6.01877335296
264.033004126       -6.33742539336
264.533066633       -6.67939578185
265.033129141       -7.04648181797
265.533191649       -7.44054225212
266.033254157       -7.86346440708
266.533316665       -8.31711612283
267.033379172       -8.80327808055
267.53344168       -9.32355128628
268.033504188       -9.87923387003
268.533566696       -10.4711611198
269.033629204       -11.0995031906
