#  x                 y             frequency           rot. str.
0.0      0.00394036867816      69.72      -2.93
0.500062507813      0.00354116162165      165.09      1.46
1.00012501563      0.00313101464579      234.63      -2.30
1.50018752344      0.00270959651853      296.04      48.54
2.00025003125      0.00227656391529      332.42      -36.02
2.50031253907      0.00183156089287      354.52      52.27
3.00037504688      0.00137421833677      419.07      16.53
3.50043755469      0.000904153380187      548.36      -4.19
4.00050006251      0.000420968793207      586.47      -56.48
4.50056257032      -7.57476597024e-05      607.41      35.66
5.00062507813      -0.000586423895684      742.23      43.90
5.50068758595      -0.001111504225      809.39      -2.88
6.00075009376      -0.00165145010022      846.82      -182.91
6.50081260158      -0.00220674090525      882.17      126.23
7.00087510939      -0.00277787478687      995.86      -2.08
7.5009376172      -0.00336536953107      1055.25      -26.64
8.00100012502      -0.00396976348725      1088.50      12.62
8.50106263283      -0.00459161654309      1114.95      12.95
9.00112514064      -0.00523151115328      1187.03      18.09
9.50118764846      -0.00589005342567      1223.66      -37.59
10.0012501563      -0.00656787426822      1226.72      -24.06
10.5013126641      -0.00726563060097      1314.79      19.87
11.0013751719      -0.00798400663695      1377.06      -18.13
11.5014376797      -0.00872371523673      1390.12      -29.49
12.0015001875      -0.00948549934131      1409.45      132.80
12.5015626953      -0.0102701334886      1454.54      -13.48
13.0016252032      -0.0110784254191      1510.21      -0.27
13.501687711      -0.0119112177765      1659.39      -16.79
14.0017502188      -0.0127693899103      1811.09      -9.50
14.5018127266      -0.0136538597861      2950.32      1.60
15.0018752344      -0.014565586013      3048.48      9.22
15.5019377422      -0.015505569994      3065.79      -13.47
16.00200025      -0.0164748582097      3447.06      17.67
16.5020627578      -0.0174745446434      3492.00      6.35
17.0021252657      -0.0185057733589      3581.48      -9.73
17.5021877735      -0.0195697412413      3670.92      7.79
18.0022502813       -0.0206677009117
18.5023127891       -0.0218009638303
19.0023752969       -0.0229709036005
19.5024378047       -0.0241789594886
20.0025003125       -0.0254266401766
20.5025628204       -0.0267155277638
21.0026253282       -0.0280472820375
21.502687836       -0.0294236450334
22.0027503438       -0.0308464459064
22.5028128516       -0.0323176061385
23.0028753594       -0.0338391451076
23.5029378672       -0.0354131860482
24.003000375       -0.0370419624339
24.5030628829       -0.0387278248154
25.0031253907       -0.0404732481526
25.5031878985       -0.0422808396803
26.0032504063       -0.0441533473508
26.5033129141       -0.0460936689037
27.0033754219       -0.0481048616146
27.5034379297       -0.0501901527793
28.0035004376       -0.0523529509989
28.5035629454       -0.0545968583338
29.0036254532       -0.0569256834022
29.503687961       -0.0593434555072
30.0037504688       -0.0618544398835
30.5038129766       -0.0644631541646
31.0038754844       -0.0671743861805
31.5039379922       -0.0699932132075
32.0040005001       -0.0729250228049
32.5040630079       -0.0759755353852
33.0041255157       -0.0791508286812
33.5041880235       -0.082457364289
34.0042505313       -0.0859020164866
34.5043130391       -0.0894921035456
35.0043755469       -0.0932354217808
35.5044380548       -0.0971402826034
36.0045005626       -0.101215552878
36.5045630704       -0.105470698911
37.0046255782       -0.109915834434
37.504688086       -0.114561772995
38.0047505938       -0.119420085195
38.5048131016       -0.124503161278
39.0048756095       -0.129824279632
39.5049381173       -0.135397681806
40.0050006251       -0.14123865474
40.5050631329       -0.14736362096
41.0051256407       -0.153790237595
41.5051881485       -0.160537505147
42.0052506563       -0.167625887071
42.5053131641       -0.175077441312
43.005375672       -0.182915965108
43.5054381798       -0.191167154471
44.0055006876       -0.199858779944
44.5055631954       -0.209020880371
45.0056257032       -0.218685976631
45.505688211       -0.228889307441
46.0057507188       -0.239669089575
46.5058132267       -0.251066805024
47.0058757345       -0.263127517878
47.5059382423       -0.275900223884
48.0060007501       -0.289438235849
48.5060632579       -0.303799608239
49.0061257657       -0.319047604423
49.5061882735       -0.335251210044
50.0062507813       -0.352485695937
50.5063132892       -0.370833233718
51.006375797       -0.390383566661
51.5064383048       -0.411234737578
52.0065008126       -0.433493874037
52.5065633204       -0.457278029141
53.0066258282       -0.482715073083
53.506688336       -0.509944626353
54.0067508439       -0.539119019464
54.5068133517       -0.570404255725
55.0068758595       -0.60398094227
55.5069383673       -0.640045139253
56.0070008751       -0.678809056655
56.5070633829       -0.720501501144
57.0071258907       -0.765367939993
57.5071883985       -0.813670003294
58.0072509064       -0.865684187315
58.5073134142       -0.921699448632
59.007375922       -0.982013289017
59.5074384298       -1.04692582434
60.0075009376       -1.11673120914
60.5075634454       -1.19170565854
61.0076259532       -1.27209118536
61.5076884611       -1.35807407814
62.0077509689       -1.44975712919
62.5078134767       -1.54712474673
63.0078759845       -1.6500004452
63.5079384923       -1.75799692429
64.0080010001       -1.87046015594
64.5080635079       -1.98641071681
65.0081260158       -2.10448806887
65.5081885236       -2.2229064526
66.0082510314       -2.33943405821
66.5083135392       -2.45140929939
67.008376047       -2.55580803711
67.5084385548       -2.64937201768
68.0085010626       -2.72880053605
68.5085635704       -2.79099460095
69.0086260783       -2.83332787383
69.5086885861       -2.85390569183
70.0087510939       -2.8517678205
70.5088136017       -2.8269961238
71.0088761095       -2.78070525218
71.5089386173       -2.71491827597
72.0090011251       -2.63235239653
72.509063633       -2.53615520085
73.0091261408       -2.4296356045
73.5091886486       -2.31602651338
74.0092511564       -2.19830261329
74.5093136642       -2.07906180825
75.009376172       -1.96046669955
75.5094386798       -1.844234998
76.0095011876       -1.73166482519
76.5095636955       -1.62368131071
77.0096262033       -1.52089325671
77.5096887111       -1.42365168276
78.0097512189       -1.33210496931
78.5098137267       -1.24624768667
79.0098762345       -1.16596191501
79.5099387423       -1.09105098459
80.0100012502       -1.02126621765
80.510063758       -0.956327570311
81.0101262658       -0.895939169751
81.5101887736       -0.839800710475
82.0102512814       -0.787615573835
82.5103137892       -0.739096408944
83.010376297       -0.6939687837
83.5104388049       -0.651973395073
84.0105013127       -0.61286722367
84.5105638205       -0.576423930555
85.0106263283       -0.542433723524
85.5106888361       -0.510702863742
86.0107513439       -0.481052939615
86.5108138517       -0.453320000787
87.0108763595       -0.427353619249
87.5109388674       -0.40301592497
88.0110013752       -0.380180648871
88.511063883       -0.358732195126
89.0111263908       -0.338564756879
89.5111888986       -0.31958148371
90.0112514064       -0.301693705108
90.5113139142       -0.28482021134
91.0113764221       -0.268886591131
91.5114389299       -0.25382462426
92.0115014377       -0.239571726376
92.5115639455       -0.226070442823
93.0116264533       -0.213267988061
93.5116889611       -0.201115827176
94.0117514689       -0.18956929605
94.5118139767       -0.178587256869
95.0118764846       -0.168131785831
95.5119389924       -0.158167890106
96.0120015002       -0.148663251341
96.512064008       -0.139587993175
97.0121265158       -0.13091447049
97.5121890236       -0.122617078287
98.0122515314       -0.114672078286
98.5123140393       -0.10705744153
99.0123765471       -0.0997527054263
99.5124390549       -0.0927388438261
100.012501563       -0.0859981488579
100.512564071       -0.0795141233848
101.012626578       -0.0732713830472
101.512689086       -0.0672555669666
102.012751594       -0.0614532562757
102.512814102       -0.0558518997239
103.01287661       -0.0504397456837
103.512939117       -0.0452057799486
104.013001625       -0.0401396687769
104.513064133       -0.0352317066866
105.013126641       -0.0304727685592
105.513189149       -0.0258542656493
106.013251656       -0.021368105141
106.513314164       -0.0170066529234
107.013376672       -0.0127626992903
107.51343918       -0.00862942729825
108.013501688       -0.00460038354017
108.513564196       -0.000669451117367
109.013626703       0.00316917538977
109.513689211       0.00692101313201
110.013751719       0.0105913125465
110.513814227       0.0141850774058
111.013876735       0.0177070834978
111.513939242       0.0211618960591
112.01400175       0.0245538860768
112.514064258       0.027887245563
113.014126766       0.0311660018963
113.514189274       0.0343940313198
114.014251781       0.0375750716767
114.514314289       0.0407127344576
115.014376797       0.043810516231
115.514439305       0.0468718095213
116.014501813       0.0498999131951
116.514564321       0.0528980424137
117.014626828       0.0558693382051
117.514689336       0.0588168767073
118.014751844       0.0617436781324
118.514814352       0.0646527154968
119.01487686       0.0675469231648
119.514939367       0.0704292052493
120.015001875       0.0733024439123
120.515064383       0.0761695076086
121.015126891       0.0790332593163
121.515189399       0.081896564795
122.015251906       0.0847623009167
122.515314414       0.0876333641134
123.015376922       0.0905126789856
123.51543943       0.0934032071208
124.015501938       0.0963079561688
124.515564446       0.0992299892269
125.015626953       0.102172434588
125.515689461       0.105138495911
126.015751969       0.10813146287
126.515814477       0.111154722359
127.015876985       0.114211770307
127.515939492       0.117306224194
128.016002       0.120441836343
128.516064508       0.123622508086
129.016127016       0.126852304889
129.516189524       0.13013547256
130.016252032       0.133476454642
130.516314539       0.136879911136
131.016377047       0.140350738684
131.516439555       0.143894092374
132.016502063       0.147515409343
132.516564571       0.151220434361
133.016627078       0.155015247619
133.516689586       0.158906294943
134.016752094       0.162900420702
134.516814602       0.167004903697
135.01687711       0.171227496347
135.516939617       0.175576467524
136.017002125       0.180060649442
136.517064633       0.184689489024
137.017127141       0.189473104238
137.517189649       0.194422345947
138.017252157       0.199548865854
138.517314664       0.204865191231
139.017377172       0.21038480714
139.51743968       0.216122246981
140.017502188       0.222093192254
140.517564696       0.228314582534
141.017627203       0.234804736738
141.517689711       0.241583486882
142.017752219       0.24867232563
142.517814727       0.256094569032
143.017877235       0.263875535971
143.517939742       0.272042745914
144.01800225       0.280626136663
144.518064758       0.289658303833
145.018127266       0.299174763785
145.518189774       0.3092142417
146.018252282       0.319818986279
146.518314789       0.331035112288
147.018377297       0.342912971609
147.518439805       0.355507552737
148.018502313       0.368878907437
148.518564821       0.383092601664
149.018627328       0.398220185427
149.518689836       0.414339673013
150.018752344       0.431536020456
150.518814852       0.449901580961
151.01887736       0.469536510724
151.518939867       0.49054908655
152.019002375       0.513055882088
152.519064883       0.537181730544
153.019127391       0.563059377189
153.519189899       0.590828693958
154.019252407       0.620635289657
154.519314914       0.652628302192
155.019377422       0.686957103804
155.51943993       0.723766588001
156.019502438       0.763190642096
156.519564946       0.805343350334
157.019627453       0.850307434818
157.519689961       0.898119449197
158.019752469       0.948751330227
158.519814977       1.00208813554
159.019877485       1.0579022156
159.519939992       1.11582475144
160.0200025       1.17531658834
160.520065008       1.23564160725
161.020127516       1.29584738875
161.520190024       1.35475935497
162.020252532       1.41099542172
162.520315039       1.46300776666
163.020377547       1.50915590891
163.520440055       1.54781050116
164.020502563       1.57748040736
164.520565071       1.59694819606
165.020627578       1.60539349111
165.520690086       1.60248224809
166.020752594       1.58840448811
166.520815102       1.56385274354
167.02087761       1.52994566505
167.520940118       1.4881120051
168.021002625       1.43995627554
168.521065133       1.38712754621
169.021127641       1.3312081238
169.521190149       1.27363162886
170.021252657       1.21563279996
170.521315164       1.15822591865
171.021377672       1.10220569277
171.52144018       1.04816352452
172.021502688       0.996512657648
172.521565196       0.947517026513
173.021627703       0.90132015723
173.521690211       0.857971855882
174.021752719       0.817451508094
174.521815227       0.779687581461
175.021877735       0.744573408668
175.521940243       0.71197960011
176.02200275       0.681763556184
176.522065258       0.653776575795
177.022127766       0.627869029503
177.522190274       0.603894010884
178.022252782       0.581709815358
178.522315289       0.561181532237
179.022377797       0.542181978147
179.522440305       0.524592150497
180.022502813       0.508301338675
180.522565321       0.493206997513
181.022627828       0.479214461392
181.522690336       0.466236556921
182.022752844       0.454193156443
182.522815352       0.443010702665
183.02287786       0.432621725769
183.522940368       0.422964367615
184.023002875       0.413981922755
184.523065383       0.405622402347
185.023127891       0.397838124453
185.523190399       0.39058533239
186.023252907       0.383823841464
186.523315414       0.377516713591
187.023377922       0.371629958694
187.52344043       0.366132261429
188.023502938       0.360994731585
188.523565446       0.356190676407
189.023627953       0.351695393083
189.523690461       0.347485979668
190.023752969       0.343541162787
190.523815477       0.339841140539
191.023877985       0.336367439152
191.523940493       0.333102782003
192.024003       0.330030969753
192.524065508       0.327136770434
193.024128016       0.324405818414
193.524190524       0.321824521278
194.024253032       0.319379973713
194.524315539       0.317059877593
195.024378047       0.314852467487
195.524440555       0.312746440924
196.024503063       0.310730892756
196.524565571       0.308795253021
197.024628079       0.306929227774
197.524690586       0.305122742339
198.024753094       0.303365886507
198.524815602       0.301648861208
199.02487811       0.299961926196
199.524940618       0.298295348325
200.025003125       0.296639349966
200.525065633       0.294984057152
201.025128141       0.293319447012
201.525190649       0.291635294053
202.025253157       0.28992111486
202.525315664       0.28816611072
203.025378172       0.286359107707
203.52544068       0.284488493701
204.025503188       0.28254215179
204.525565696       0.280507389475
205.025628204       0.278370863033
205.525690711       0.276118496365
206.025753219       0.273735393561
206.525815727       0.271205744378
207.025878235       0.268512721725
207.525940743       0.265638370185
208.02600325       0.26256348447
208.526065758       0.259267476641
209.026128266       0.255728230772
209.526190774       0.251921943618
210.026253282       0.247822949716
210.526315789       0.243403529187
211.026378297       0.238633696332
211.526440805       0.233480966995
212.026503313       0.227910102446
212.526565821       0.22188282741
213.026628329       0.215357519705
213.526690836       0.208288868827
214.026753344       0.20062750075
214.526815852       0.192319566186
215.02687836       0.18330628967
215.526940868       0.173523477062
216.027003375       0.162900979531
216.527065883       0.151362112889
217.027128391       0.138823032305
217.527190899       0.125192064239
218.027253407       0.110369000026
218.527315914       0.0942443591619
219.027378422       0.0766986354618
219.52744093       0.0576015462477
220.027503438       0.0368113142375
220.527565946       0.0141740246311
221.027628454       -0.0104768830266
221.527690961       -0.0373209060766
222.027753469       -0.0665504414859
222.527815977       -0.0983702705366
223.027878485       -0.132996367637
223.527940993       -0.170653775201
224.0280035       -0.211573213171
224.528066008       -0.255986005165
225.028128516       -0.30411680572
225.528191024       -0.356173510899
226.028253532       -0.412333640627
226.52831604       -0.472726418496
227.028378547       -0.537409781109
227.528441055       -0.606341680717
228.028503563       -0.679345380731
228.528566071       -0.756069082238
229.028628579       -0.835941267573
229.528691086       -0.918124688039
230.028753594       -1.00147396089
230.528816102       -1.08450411436
231.02887861       -1.16537970075
231.528941118       -1.24193551867
232.029003625       -1.31173947432
232.529066133       -1.37220453679
233.029128641       -1.42074942426
233.529191149       -1.45499705548
234.029253657       -1.47298803793
234.529316165       -1.47337720585
235.029378672       -1.45557853499
235.52944118       -1.41983020283
236.029503688       -1.36716645949
236.529566196       -1.29930211737
237.029628704       -1.21845274247
237.529691211       -1.12712377116
238.029753719       -1.02790261131
238.529816227       -0.923280723809
239.029878735       -0.815521425988
239.529941243       -0.706577733546
240.03000375       -0.598055775331
240.530066258       -0.491214266621
241.030128766       -0.386988906565
241.530191274       -0.286031349027
242.030253782       -0.188754442978
242.53031629       -0.0953778446353
243.030378797       -0.00597030889338
243.530441305       0.0795132846314
244.030503813       0.161200876348
244.530566321       0.239278056693
245.030628829       0.313968250904
245.530691336       0.385517524918
246.030753844       0.454183229951
246.530816352       0.520225743691
247.03087886       0.583902650856
247.530941368       0.645464806783
248.031003875       0.705153828189
248.531066383       0.763200646746
249.031128891       0.819824839895
249.531191399       0.875234518818
250.031253907       0.929626606382
250.531316415       0.983187379865
251.031378922       1.03609318595
251.53144143       1.08851126074
252.031503938       1.14060060662
252.531566446       1.19251289242
253.031628954       1.24439335397
253.531691461       1.29638168035
254.031753969       1.34861287674
254.531816477       1.40121809939
255.031878985       1.45432546093
255.531941493       1.50806080688
256.032004001       1.56254846527
256.532066508       1.61791197269
257.032129016       1.67427478083
257.532191524       1.73176094777
258.032254032       1.79049581899
258.53231654       1.85060670309
259.032379047       1.91222354737
259.532441555       1.97547961877
260.032504063       2.04051219567
260.532566571       2.10746327609
261.032629079       2.1764803084
261.532691586       2.24771695052
262.032754094       2.32133386398
262.532816602       2.3974995497
263.03287911       2.47639123252
263.532941618       2.55819580219
264.033004126       2.64311081897
264.533066633       2.7313455927
265.033129141       2.82312234498
265.533191649       2.91867746481
266.033254157       3.01826286934
266.533316665       3.12214748205
267.033379172       3.23061884234
267.53344168       3.3439848617
268.033504188       3.46257574322
268.533566696       3.58674608299
269.033629204       3.71687717399
269.533691711       3.85337953496
270.033754219       3.99669568945
