#  x                 y             frequency           rot. str.
0.0      -0.10671098924      67.41      -7.02
0.500062507813      -0.108209236172      165.33      -11.94
1.00012501563      -0.109740310233      231.10      0.99
1.50018752344      -0.11130517708      277.23      142.32
2.00025003125      -0.11290483811      287.84      21.01
2.50031253907      -0.114540332054      302.21      -167.19
3.00037504688      -0.116212736652      359.42      24.47
3.50043755469      -0.117923170426      389.56      -14.03
4.00050006251      -0.119672794537      574.90      29.42
4.50056257032      -0.121462814744      712.94      -25.86
5.00062507813      -0.123294483476      751.85      -66.97
5.50068758595      -0.125169102      788.39      -47.45
6.00075009376      -0.127088022725      813.22      -6.20
6.50081260158      -0.129052651624      871.89      90.10
7.00087510939      -0.131064450787      914.98      -11.53
7.5009376172      -0.133124941125      1001.85      -50.13
8.00100012502      -0.135235705219      1045.29      -14.31
8.50106263283      -0.137398390337      1131.65      0.11
9.00112514064      -0.139614711616      1157.15      -43.51
9.50118764846      -0.141886455435      1221.80      -78.60
10.0012501563      -0.144215482977      1257.54      146.41
10.5013126641      -0.146603734007      1295.02      -3.59
11.0013751719      -0.14905323086      1340.77      -11.08
11.5014376797      -0.151566082686      1406.44      -25.54
12.0015001875      -0.154144489926      1416.70      53.11
12.5015626953      -0.15679074908      1441.88      -2.94
13.0016252032      -0.159507257749      1506.81      2.13
13.501687711      -0.162296519997      1655.25      19.57
14.0017502188      -0.16516115204      1824.87      37.51
14.5018127266      -0.168103888291      3020.72      -3.76
15.0018752344      -0.171127587786      3071.74      9.12
15.5019377422      -0.174235241021      3077.64      -2.94
16.00200025      -0.177429977218      3493.25      -2.80
16.5020627578      -0.18071507207      3538.44      -55.80
17.0021252657      -0.184093955988      3572.26      1.53
17.5021877735      -0.187570222883      3822.49      1.08
18.0022502813       -0.191147639537
18.5023127891       -0.194830155601
19.0023752969       -0.198621914262
19.5024378047       -0.202527263638
20.0025003125       -0.206550768958
20.5025628204       -0.210697225582
21.0026253282       -0.21497167293
21.502687836       -0.219379409398
22.0027503438       -0.223926008333
22.5028128516       -0.228617335154
23.0028753594       -0.233459565714
23.5029378672       -0.238459206011
24.003000375       -0.243623113348
24.5030628829       -0.248958519071
25.0031253907       -0.254473053024
25.5031878985       -0.260174769854
26.0032504063       -0.26607217734
26.5033129141       -0.272174266913
27.0033754219       -0.278490546556
27.5034379297       -0.285031076317
28.0035004376       -0.291806506633
28.5035629454       -0.298828119751
29.0036254532       -0.306107874515
29.503687961       -0.313658454821
30.0037504688       -0.321493322096
30.5038129766       -0.329626772164
31.0038754844       -0.338073996919
31.5039379922       -0.346851151269
32.0040005001       -0.355975425837
32.5040630079       -0.365465126006
33.0041255157       -0.3753397579
33.5041880235       -0.385620122005
34.0042505313       -0.396328415183
34.5043130391       -0.407488341915
35.0043755469       -0.419125235713
35.5044380548       -0.431266191736
36.0045005626       -0.443940211754
36.5045630704       -0.457178362747
37.0046255782       -0.471013950549
37.504688086       -0.485482710113
38.0047505938       -0.500623014164
38.5048131016       -0.516476102171
39.0048756095       -0.533086331816
39.5049381173       -0.550501455363
40.0050006251       -0.568772923608
40.5050631329       -0.587956220367
41.0051256407       -0.608111230815
41.5051881485       -0.629302647312
42.0052506563       -0.651600416762
42.5053131641       -0.675080233965
43.005375672       -0.699824085875
43.5054381798       -0.725920852156
44.0055006876       -0.753466967926
44.5055631954       -0.78256715512
45.0056257032       -0.813335229378
45.505688211       -0.845894989892
46.0057507188       -0.880381200057
46.5058132267       -0.916940667129
47.0058757345       -0.955733429234
47.5059382423       -0.996934058023
48.0060007501       -1.04073308478
48.5060632579       -1.0873385568
49.0061257657       -1.13697772914
49.5061882735       -1.18989889384
50.0062507813       -1.24637334474
50.5063132892       -1.3066974692
51.006375797       -1.3711949495
51.5064383048       -1.44021904357
52.0065008126       -1.51415489716
52.5065633204       -1.59342181541
53.0066258282       -1.67847538919
53.506688336       -1.76980932721
54.0067508439       -1.86795678712
54.5068133517       -1.97349092187
55.0068758595       -2.08702425803
55.5069383673       -2.2092063949
56.0070008751       -2.34071935229
56.5070633829       -2.48226969492
57.0071258907       -2.63457632137
57.5071883985       -2.79835252656
58.0072509064       -2.97428064014
58.5073134142       -3.16297723504
59.007375922       -3.36494664158
59.5074384298       -3.58052037807
60.0075009376       -3.80978025654
60.5075634454       -4.05246353962
61.0076259532       -4.30784987857
61.5076884611       -4.57463217135
62.0077509689       -4.85077725518
62.5078134767       -5.13338767592
63.0078759845       -5.4185825022
63.5079384923       -5.70142249676
64.0080010001       -5.97591121489
64.5080635079       -6.23510601654
65.0081260158       -6.47136807502
65.5081885236       -6.67676510725
66.0082510314       -6.84361379288
66.5083135392       -6.96511400003
67.008376047       -7.03599255627
67.5084385548       -7.0530526603
68.0085010626       -7.01552745403
68.5085635704       -6.92516710475
69.0086260783       -6.78604140637
69.5086885861       -6.60409835335
70.0087510939       -6.38656470132
70.5088136017       -6.14129431937
71.0088761095       -5.87616205376
71.5089386173       -5.59857262757
72.0090011251       -5.31511820565
72.509063633       -5.03138585866
73.0091261408       -4.75189377255
73.5091886486       -4.48012408997
74.0092511564       -4.21861867533
74.5093136642       -3.96910841407
75.009376172       -3.73265361347
75.5094386798       -3.50978031964
76.0095011876       -3.30060359215
76.5095636955       -3.10493348788
77.0096262033       -2.92236271086
77.5096887111       -2.7523368384
78.0097512189       -2.59420906257
78.5098137267       -2.44728178975
79.0098762345       -2.31083746222
79.5099387423       -2.18416077464
80.0100012502       -2.06655417233
80.510063758       -1.95734820615
81.0101262658       -1.85590802111
81.5101887736       -1.76163699132
82.0102512814       -1.67397828985
82.5103137892       -1.59241499784
83.010376297       -1.51646921029
83.5104388049       -1.44570047905
84.0105013127       -1.37970384448
84.5105638205       -1.3181076376
85.0106263283       -1.26057118272
85.5106888361       -1.20678249129
86.0107513439       -1.15645600859
86.5108138517       -1.10933045345
87.0108763595       -1.0651667758
87.5109388674       -1.02374624549
88.0110013752       -0.984868678115
88.511063883       -0.9483507979
89.0111263908       -0.914024734303
89.5111888986       -0.881736646389
90.0112514064       -0.851345467703
90.5113139142       -0.82272176361
91.0113764221       -0.795746692737
91.5114389299       -0.770311064207
92.0115014377       -0.746314482598
92.5115639455       -0.72366457293
93.0116264533       -0.702276278462
93.5116889611       -0.682071224562
94.0117514689       -0.662977142464
94.5118139767       -0.644927347199
95.0118764846       -0.627860264521
95.5119389924       -0.611719002085
96.0120015002       -0.596450960607
96.512064008       -0.582007481113
97.0121265158       -0.568343524786
97.5121890236       -0.555417382244
98.0122515314       -0.543190409414
98.5123140393       -0.531626787425
99.0123765471       -0.520693304242
99.5124390549       -0.510359155942
100.012501563       -0.500595765784
100.512564071       -0.491376619406
101.012626578       -0.482677114625
101.512689086       -0.474474424501
102.012751594       -0.466747372451
102.512814102       -0.459476318309
103.01287661       -0.452643054351
103.512939117       -0.446230710415
104.013001625       -0.440223667292
104.513064133       -0.434607477701
105.013126641       -0.429368794187
105.513189149       -0.424495303362
106.013251656       -0.419975665976
106.513314164       -0.41579946234
107.013376672       -0.411957142684
107.51343918       -0.408439982069
108.013501688       -0.405240039515
108.513564196       -0.402350121026
109.013626703       -0.399763746266
109.513689211       -0.397475118606
110.013751719       -0.395479098358
110.513814227       -0.393771178974
111.013876735       -0.392347466057
111.513939242       -0.391204659027
112.01400175       -0.390340035305
112.514064258       -0.389751436908
113.014126766       -0.389437259359
113.514189274       -0.38939644282
114.014251781       -0.389628465393
114.514314289       -0.390133338525
115.014376797       -0.390911604488
115.514439305       -0.391964335901
116.014501813       -0.393293137288
116.514564321       -0.394900148658
117.014626828       -0.396788051136
117.514689336       -0.39896007466
118.014751844       -0.401420007787
118.514814352       -0.40417220965
119.01487686       -0.407221624145
119.514939367       -0.410573796417
120.015001875       -0.414234891737
120.515064383       -0.418211716888
121.015126891       -0.422511744181
121.515189399       -0.427143138241
122.015251906       -0.432114785733
122.515314414       -0.437436328199
123.015376922       -0.443118198228
123.51543943       -0.449171659168
124.015501938       -0.455608848647
124.515564446       -0.462442826183
125.015626953       -0.469687625195
125.515689461       -0.477358309761
126.015751969       -0.485471036513
126.515814477       -0.494043122091
127.015876985       -0.503093116633
127.515939492       -0.512640883816
128.016002       -0.522707688028
128.516064508       -0.533316289312
129.016127016       -0.544491046793
129.516189524       -0.556258031353
130.016252032       -0.568645148449
130.516314539       -0.581682272004
131.016377047       -0.595401390456
131.516439555       -0.609836766144
132.016502063       -0.625025109317
132.516564571       -0.64100576825
133.016627078       -0.657820937056
133.516689586       -0.675515882986
134.016752094       -0.694139195214
134.516814602       -0.713743057313
135.01687711       -0.734383545872
135.516939617       -0.75612095799
136.017002125       -0.77902017068
136.517064633       -0.803151035571
137.017127141       -0.828588812636
137.517189649       -0.855414647142
138.017252157       -0.883716094454
138.517314664       -0.913587697823
139.017377172       -0.945131624882
139.51743968       -0.978458369178
140.017502188       -1.01368752372
140.517564696       -1.05094863426
141.017627203       -1.09038214088
141.517689711       -1.13214041704
142.017752219       -1.17638891652
142.517814727       -1.22330743908
143.017877235       -1.27309152695
143.517939742       -1.32595400481
144.01800225       -1.38212667681
144.518064758       -1.4418621946
145.018127266       -1.50543611058
145.518189774       -1.57314913043
146.018252282       -1.6453295779
146.518314789       -1.72233608306
147.018377297       -1.80456050191
147.518439805       -1.8924310699
148.018502313       -1.98641578418
148.518564821       -2.08702599776
149.018627328       -2.19482019248
149.518689836       -2.31040787439
150.018752344       -2.43445350354
150.518814852       -2.56768032667
151.01887736       -2.71087392209
151.518939867       -2.86488518792
152.019002375       -3.03063239975
152.519064883       -3.20910182738
153.019127391       -3.4013462225
153.519189899       -3.60848026182
154.019252407       -3.8316717448
154.519314914       -4.0721269928
155.019377422       -4.33106847527
155.51943993       -4.60970220334
156.019502438       -4.90917190529
156.519564946       -5.2304964813
157.019627453       -5.57448682387
157.519689961       -5.94163794365
158.019752469       -6.33199270998
158.519814977       -6.74497475933
159.019877485       -7.17919071679
159.519939992       -7.63220636404
160.0200025       -8.10030828436
160.520065008       -8.57827205919
161.020127516       -9.05916986521
161.520190024       -9.5342627422
162.020252532       -9.99303264364
162.520315039       -10.4234116552
163.020377547       -10.8122544857
163.520440055       -11.1460705856
164.020502563       -11.4119835148
164.520565071       -11.5988247034
165.020627578       -11.6982126159
165.520690086       -11.7054378366
166.020752594       -11.6199875791
166.520815102       -11.4456038246
167.02087761       -11.1898630592
167.520940118       -10.8633632195
168.021002625       -10.4786740213
168.521065133       -10.0492314577
169.021127641       -9.58833581275
169.521190149       -9.10836052177
170.021252657       -8.62021801048
170.521315164       -8.13307612759
171.021377672       -7.6542843369
171.52144018       -7.18945351189
172.021502688       -6.74263277896
172.521565196       -6.31653541098
173.021627703       -5.91277794202
173.521690211       -5.53210880001
174.021752719       -5.17461290032
174.521815227       -4.83988616307
175.021877735       -4.52717893683
175.521940243       -4.23551030178
176.02200275       -3.96375674308
176.522065258       -3.71071922497
177.022127766       -3.47517264578
177.522190274       -3.25590128835
178.022252782       -3.05172337736
178.522315289       -2.86150732602
179.022377797       -2.68418175599
179.522440305       -2.51874093774
180.022502813       -2.36424692936
180.522565321       -2.2198293916
181.022627828       -2.08468381614
181.522690336       -1.95806871599
182.022752844       -1.83930218064
182.522815352       -1.72775808763
183.02287786       -1.62286217738
183.522940368       -1.52408813556
184.023002875       -1.43095377999
184.523065383       -1.34301741518
185.023127891       -1.25987439228
185.523190399       -1.18115389476
186.023252907       -1.1065159574
186.523315414       -1.03564871737
187.023377922       -0.968265890803
187.52344043       -0.9041044641
188.023502938       -0.842922587378
188.523565446       -0.784497656124
189.023627953       -0.728624566818
189.523690461       -0.67511413241
190.023752969       -0.62379164399
190.523815477       -0.574495565669
191.023877985       -0.527076350486
191.523940493       -0.481395366038
192.024003       -0.437323919379
192.524065508       -0.394742371612
193.024128016       -0.353539333434
193.524190524       -0.313610933673
194.024253032       -0.274860153579
194.524315539       -0.237196220337
195.024378047       -0.200534053862
195.524440555       -0.164793761518
196.024503063       -0.129900175927
196.524565571       -0.0957824314732
197.024628079       -0.0623735755592
197.524690586       -0.0296102110143
198.024753094       0.00256783358211
198.524815602       0.0342178086157
199.02487811       0.0653943258707
199.524940618       0.0961496211278
200.025003125       0.126533799164
200.525065633       0.15659506321
201.025128141       0.186379930753
201.525190649       0.215933437456
202.025253157       0.245299330812
202.525315664       0.274520255088
203.025378172       0.303637929002
203.52544068       0.332693317519
204.025503188       0.361726799108
204.525565696       0.390778329736
205.025628204       0.419887604889
205.525690711       0.449094220853
206.025753219       0.478437836512
206.525815727       0.507958336936
207.025878235       0.537696000021
207.525940743       0.56769166749
208.02600325       0.597986921612
208.526065758       0.628624268992
209.026128266       0.659647332879
209.526190774       0.691101055427
210.026253282       0.723031911425
210.526315789       0.755488134963
211.026378297       0.788519960552
211.526440805       0.822179880098
212.026503313       0.856522917052
212.526565821       0.891606918792
213.026628329       0.927492867992
213.526690836       0.964245213149
214.026753344       1.00193221768
214.526815852       1.04062632583
215.02687836       1.08040454212
215.526940868       1.12134881859
216.027003375       1.16354644146
216.527065883       1.20709040406
217.027128391       1.25207974795
217.527190899       1.29861984602
218.027253407       1.34682259213
218.527315914       1.39680644832
219.027378422       1.44869628475
219.52744093       1.50262292584
220.027503438       1.55872229035
220.527565946       1.61713398077
221.027628454       1.67799914035
221.527690961       1.74145735342
222.027753469       1.80764232093
222.527815977       1.87667600337
223.027878485       1.9486608972
223.527940993       2.02367011629
224.0280035       2.10173501082
224.528066008       2.18283020685
225.028128516       2.26685623418
225.528191024       2.35362037257
226.028253532       2.44281702325
226.52831604       2.534009801
227.028378547       2.62661856808
227.528441055       2.7199156022
228.028503563       2.81303566685
228.528566071       2.90500446743
229.028628579       2.99478834754
229.528691086       3.08136483431
230.028753594       3.16380901588
230.528816102       3.24138568564
231.02887861       3.3136333239
231.528941118       3.38042504365
232.029003625       3.44199463949
232.529066133       3.49892246212
233.029128641       3.55208410872
233.529191149       3.60257222729
234.029253657       3.65160587161
234.529316165       3.70044197187
235.029378672       3.75030028953
235.52944118       3.80230833128
236.029503688       3.85746782045
236.529566196       3.91664063304
237.029628704       3.98055002853
237.529691211       4.04979238326
238.029753719       4.12485501784
238.529816227       4.20613660941
239.029878735       4.29396771648
239.529941243       4.38862988409
240.03000375       4.49037253695
240.530066258       4.5994273901
241.030128766       4.71602043786
241.530191274       4.84038176663
242.030253782       4.97275352114
242.53031629       5.11339637263
243.030378797       5.26259481973
243.530441305       5.42066161735
244.030503813       5.5879415865
244.530566321       5.76481501689
245.030628829       5.95170083697
245.530691336       6.14905969473
246.030753844       6.35739706702
246.530816352       6.57726649565
247.03087886       6.80927303359
247.530941368       7.05407697414
248.031003875       7.31239792919
248.531066383       7.58501931844
249.031128891       7.87279333036
249.531191399       8.17664641606
250.031253907       8.49758537951
250.531316415       8.83670413167
251.031378922       9.19519118083
251.53144143       9.57433793808
252.031503938       9.97554792401
252.531566446       10.400346971
253.031628954       10.8503945248
253.531691461       11.3274961584
254.031753969       11.8336174221
254.531816477       12.370899164
255.031878985       12.9416744655
255.531941493       13.5484873458
256.032004001       14.1941133993
256.532066508       14.8815825329
257.032129016       15.6142039757
257.532191524       16.3955937253
258.032254032       17.229704586
258.53231654       18.1208589259
259.032379047       19.0737842368
259.532441555       20.0936515135
260.032504063       21.1861163671
260.532566571       22.3573626357
261.032629079       23.614148049
261.532691586       24.963851203
262.032754094       26.4145186987
262.532816602       27.9749107383
263.03287911       29.6545427278
263.532941618       31.4637194302
264.033004126       33.4135568917
264.533066633       35.5159856285
265.033129141       37.7837263205
265.533191649       40.2302264046
266.033254157       42.8695423752
266.533316665       45.7161482237
267.033379172       48.7846452339
267.53344168       52.0893424283
268.033504188       55.643670639
268.533566696       59.4593871806
269.033629204       63.5455237105
269.533691711       67.9070292044
270.033754219       72.5430663152
270.533816727       77.4449373207
271.033879235       82.5936512931
271.533941743       87.9572036665
272.034004251       93.4877286781
272.534066758       99.1188057548
