#  x                 y             frequency           rot. str.
0.0      0.227665568315      56.65      13.05
0.500062507813      0.232099598789      113.41      2.33
1.00012501563      0.236652286576      183.41      21.46
1.50018752344      0.241327803108      214.38      -39.48
2.00025003125      0.246130503109      257.36      -18.50
2.50031253907      0.251064934276      286.65      8.08
3.00037504688      0.256135847556      302.52      -30.71
3.50043755469      0.261348208062      460.90      -1.53
4.00050006251      0.266707206675      525.02      22.03
4.50056257032      0.272218272378      591.51      -48.65
5.00062507813      0.277887085375      606.51      35.38
5.50068758595      0.283719591059      767.64      -32.04
6.00075009376      0.28972201488      804.07      14.68
6.50081260158      0.295900878187      860.03      94.80
7.00087510939      0.302263015121      994.23      -62.33
7.5009376172      0.308815590624      1012.43      -44.98
8.00100012502      0.315566119663      1069.51      137.32
8.50106263283      0.322522487756      1122.58      -23.23
9.00112514064      0.329692972894      1150.04      146.95
9.50118764846      0.337086268986      1188.71      -155.27
10.0012501563      0.344711510929      1247.82      -83.24
10.5013126641      0.352578301433      1288.54      95.92
11.0013751719      0.36069673976      1345.97      -3.53
11.5014376797      0.369077452505      1355.30      14.24
12.0015001875      0.377731626605      1395.35      -4.01
12.5015626953      0.386671044751      1452.45      3.21
13.0016252032      0.395908123405      1516.89      -4.02
13.501687711      0.405455953631      1661.53      14.34
14.0017502188      0.415328344994      1816.89      -25.75
14.5018127266      0.425539872773      3004.92      -2.58
15.0018752344      0.436105928779      3042.87      0.64
15.5019377422      0.447042776088      3095.10      1.11
16.00200025      0.45836760804      3492.18      1.74
16.5020627578      0.470098611862      3571.86      2.29
17.0021252657      0.482255037348      3729.01      -1.26
17.5021877735      0.494857271035      3823.71      -3.89
18.0022502813       0.50792691638
18.5023127891       0.521486880488
19.0023752969       0.53556146799
19.5024378047       0.550176482739
20.0025003125       0.565359338071
20.5025628204       0.581139176416
21.0026253282       0.597546999186
21.502687836       0.614615807902
22.0027503438       0.632380757683
22.5028128516       0.650879324279
23.0028753594       0.670151486022
23.5029378672       0.690239922157
24.003000375       0.711190229221
24.5030628829       0.733051157293
25.0031253907       0.755874868143
25.5031878985       0.779717217551
26.0032504063       0.804638064283
26.5033129141       0.83070160853
27.0033754219       0.857976762893
27.5034379297       0.886537559363
28.0035004376       0.916463596116
28.5035629454       0.947840528389
29.0036254532       0.980760608154
29.503687961       1.01532327784
30.0037504688       1.05163582393
30.5038129766       1.08981409692
31.0038754844       1.12998330472
31.5039379922       1.1722788875
32.0040005001       1.21684748265
32.5040630079       1.26384798941
33.0041255157       1.31345274374
33.5041880235       1.36584881485
34.0042505313       1.42123943583
34.5043130391       1.47984558171
35.0043755469       1.5419077092
35.5044380548       1.60768767306
36.0045005626       1.67747083454
36.5045630704       1.75156837743
37.0046255782       1.83031984675
37.504688086       1.91409592383
38.0047505938       2.00330144896
38.5048131016       2.09837869856
39.0048756095       2.19981091731
39.5049381173       2.30812609572
40.0050006251       2.42390096962
40.5050631329       2.54776519774
41.0051256407       2.68040564553
41.5051881485       2.82257066477
42.0052506563       2.97507420573
42.5053131641       3.13879952787
43.005375672       3.31470218027
43.5054381798       3.50381179806
44.0055006876       3.70723209766
44.5055631954       3.92613824245
45.0056257032       4.16177048229
45.505688211       4.41542263433
46.0057507188       4.68842356282
46.5058132267       4.9821093305
47.0058757345       5.29778314491
47.5059382423       5.63665964336
48.0060007501       5.99978951927
48.5060632579       6.38796011547
49.0061257657       6.80156760207
49.5061882735       7.24045702823
50.0062507813       7.70372832431
50.5063132892       8.18950978534
51.006375797       8.69470629445
51.5064383048       9.2147380421
52.0065008126       9.74329684084
52.5065633204       10.2721605116
53.0066258282       10.7911189454
53.506688336       11.2880741363
54.0067508439       11.7493747668
54.5068133517       12.1604273206
55.0068758595       12.5065859865
55.5069383673       12.7742647102
56.0070008751       12.952147855
56.5070633829       13.0323212777
57.0071258907       13.0111264698
57.5071883985       12.8895724435
58.0072509064       12.6732211815
58.5073134142       12.3715703404
59.007375922       11.9970571364
59.5074384298       11.5638690765
60.0075009376       11.0867563441
60.5075634454       10.5800036561
61.0076259532       10.0566566302
61.5076884611       9.52803221091
62.0077509689       9.0034912326
62.5078134767       8.49042074011
63.0078759845       7.99436304962
63.5079384923       7.51923208248
64.0080010001       7.06756873876
64.5080635079       6.6408007066
65.0081260158       6.23948478989
65.5081885236       5.86351999659
66.0082510314       5.51232689771
66.5083135392       5.18499344881
67.008376047       4.88039013288
67.5084385548       4.59725853092
68.0085010626       4.33427776194
68.5085635704       4.09011303614
69.0086260783       3.86345009823
69.5086885861       3.65301876852
70.0087510939       3.45760821692
70.5088136017       3.27607608061
71.0088761095       3.10735308295
71.5089386173       2.95044443346
72.0090011251       2.80442898304
72.509063633       2.66845686588
73.0091261408       2.54174617008
73.5091886486       2.42357903307
74.0092511564       2.31329744675
74.5093136642       2.21029897372
75.009376172       2.11403251315
75.5094386798       2.02399420898
76.0095011876       1.93972355928
76.5095636955       1.86079976103
77.0096262033       1.78683830755
77.5096887111       1.71748784336
78.0097512189       1.65242727326
78.5098137267       1.59136311656
79.0098762345       1.53402709441
79.5099387423       1.48017393603
80.0100012502       1.42957938859
80.510063758       1.38203841565
81.0101262658       1.33736356909
81.5101887736       1.29538352026
82.0102512814       1.25594173682
82.5103137892       1.21889529284
83.010376297       1.1841138004
83.5104388049       1.15147845247
84.0105013127       1.12088116727
84.5105638205       1.09222382573
85.0106263283       1.06541759434
85.5106888361       1.04038232657
86.0107513439       1.017046037
86.5108138517       0.995344442871
87.0108763595       0.975220568673
87.5109388674       0.956624409857
88.0110013752       0.939512652585
88.511063883       0.923848446887
89.0111263908       0.909601231223
89.5111888986       0.896746606938
90.0112514064       0.885266261618
90.5113139142       0.875147940816
91.0113764221       0.866385468052
91.5114389299       0.858978813385
92.0115014377       0.852934211242
92.5115639455       0.848264328461
93.0116264533       0.84498848374
93.5116889611       0.843132919836
94.0117514689       0.842731129795
94.5118139767       0.843824238339
95.0118764846       0.846461439005
95.5119389924       0.85070048684
96.0120015002       0.856608245054
96.512064008       0.864261282054
97.0121265158       0.873746512294
97.5121890236       0.885161870235
98.0122515314       0.89861700085
98.5123140393       0.914233942135
99.0123765471       0.932147764224
99.5124390549       0.952507115121
100.012501563       0.975474603693
100.512564071       1.00122692507
101.012626578       1.02995460049
101.512689086       1.0618611611
102.012751594       1.09716155157
102.512814102       1.13607946317
103.01287661       1.17884322576
103.512939117       1.22567979589
104.013001625       1.27680627597
104.513064133       1.33241829764
105.013126641       1.39267451663
105.513189149       1.45767642604
106.013251656       1.5274427453
106.513314164       1.60187784912
107.013376672       1.68073415393
107.51343918       1.76356918309
108.013501688       1.84969929131
108.513564196       1.93815380279
109.013626703       2.02763555451
109.513689211       2.11649627329
110.013751719       2.20273728335
110.513814227       2.28404682229
111.013876735       2.35788358087
111.513939242       2.4216109409
112.01400175       2.47267746389
112.514064258       2.50882759886
113.014126766       2.528315191
113.514189274       2.5300852625
114.014251781       2.51389044786
114.514314289       2.48031880187
115.014376797       2.4307272331
115.514439305       2.36709419915
116.014501813       2.29182034139
116.514564321       2.20751219642
117.014626828       2.11678134129
117.514689336       2.02208191755
118.014751844       1.92559756007
118.514814352       1.82917803324
119.01487686       1.73431849059
119.514939367       1.64217067743
120.015001875       1.55357489592
120.515064383       1.46910300139
121.015126891       1.38910501265
121.515189399       1.31375432224
122.015251906       1.24308855433
122.515314414       1.17704467496
123.015376922       1.11548801817
123.51543943       1.0582355355
124.015501938       1.0050739151
124.515564446       0.95577334865
125.015626953       0.910097730405
125.515689461       0.867812008475
126.015751969       0.82868731359
126.515814477       0.792504386854
127.015876985       0.759055729301
127.515939492       0.728146808503
128.016002       0.699596583174
128.516064508       0.673237545853
129.016127016       0.648915434919
129.516189524       0.626488728768
130.016252032       0.605828005251
130.516314539       0.586815226638
131.016377047       0.569342993119
131.516439555       0.553313794905
132.016502063       0.53863928338
132.516564571       0.525239574671
133.016627078       0.513042593892
133.516689586       0.501983464626
134.016752094       0.492003945599
134.516814602       0.483051914729
135.01687711       0.475080899521
135.516939617       0.468049651996
136.017002125       0.461921765909
136.517064633       0.456665333751
137.017127141       0.452252640969
137.517189649       0.448659894847
138.017252157       0.445866985616
138.517314664       0.44385727748
139.017377172       0.44261742746
139.51743968       0.44213723011
140.017502188       0.442409486393
140.517564696       0.443429895188
141.017627203       0.445196966101
141.517689711       0.447711952454
142.017752219       0.450978803508
142.517814727       0.455004135158
143.017877235       0.459797218513
143.517939742       0.465369985956
144.01800225       0.471737054428
144.518064758       0.478915765864
145.018127266       0.486926244845
145.518189774       0.49579147373
146.018252282       0.505537385659
146.518314789       0.516192976018
147.018377297       0.527790433098
147.518439805       0.5403652889
148.018502313       0.553956591199
148.518564821       0.568607098191
149.018627328       0.584363497275
149.518689836       0.601276649738
150.018752344       0.619401863387
150.518814852       0.638799195423
151.01887736       0.659533788185
151.518939867       0.681676240694
152.019002375       0.705303019323
152.519064883       0.730496911299
153.019127391       0.757347525209
153.519189899       0.785951843168
154.019252407       0.816414829861
154.519314914       0.848850104276
155.019377422       0.883380680619
155.51943993       0.920139785652
156.019502438       0.959271760514
156.519564946       1.00093305598
157.019627453       1.04529333117
157.519689961       1.09253666668
158.019752469       1.14286290447
158.519814977       1.19648912804
159.019877485       1.25365129771
159.519939992       1.31460605756
160.0200025       1.37963273175
160.520065008       1.44903552999
161.020127516       1.52314598287
161.520190024       1.60232563002
162.020252532       1.68696898458
162.520315039       1.77750679913
163.020377547       1.87440965837
163.520440055       1.97819192361
164.020502563       2.08941605265
164.520565071       2.20869731571
165.020627578       2.33670892224
165.520690086       2.47418756493
166.020752594       2.62193937377
166.520815102       2.78084625335
167.02087761       2.95187254889
167.520940118       3.13607194669
168.021002625       3.33459446055
168.521065133       3.54869328099
169.021127641       3.77973116307
169.521190149       4.02918589317
170.021252657       4.29865419555
170.521315164       4.58985320305
171.021377672       4.90461830956
171.52144018       5.24489582841
172.021502688       5.61272838474
172.521565196       6.01023035603
173.021627703       6.43954993717
173.521690211       6.90281355027
174.021752719       7.40204738078
174.521815227       7.93906988148
175.021877735       8.51534830108
175.521940243       9.13181193237
176.02200275       9.788615257
176.522065258       10.4848461047
177.022127766       11.2181781631
177.522190274       11.9844746461
178.022252782       12.7773616031
178.522315289       13.5878057772
179.022377797       14.4037525774
179.522440305       15.209902178
180.022502813       15.9877206764
180.522565321       16.7157901356
181.022627828       17.3705855381
181.522690336       17.9277187082
182.022752844       18.3636065298
182.522815352       18.6574138437
183.02287786       18.7930168917
183.522940368       18.7606687091
184.023002875       18.5580577611
184.523065383       18.1905477452
185.023127891       17.670548768
185.523190399       17.016148399
186.023252907       16.2492685108
186.523315414       15.3936717662
187.023377922       14.4731146611
187.52344043       13.509856601
188.023502938       12.5236246394
188.523565446       11.5310351587
189.023627953       10.545406351
189.523690461       9.5768628063
190.023752969       8.63262931597
190.523815477       7.7174245633
191.023877985       6.83388674817
191.523940493       5.98298529652
192.024003       5.16439171431
192.524065508       4.37679690363
193.024128016       3.61817192921
193.524190524       2.88597509853
194.024253032       2.17731129418
194.524315539       1.48905069
195.024378047       0.817914022935
195.524440555       0.160531003653
196.024503063       -0.486522420729
196.524565571       -1.12670317561
197.024628079       -1.76349264586
197.524690586       -2.40039761536
198.024753094       -3.04095806241
198.524815602       -3.6887597993
199.02487811       -4.34745028997
199.524940618       -5.02075619146
200.025003125       -5.71250124864
200.525065633       -6.42662312671
201.025128141       -7.16718758732
201.525190649       -7.93839809056
202.025253157       -8.74459841885
202.525315664       -9.59026524828
203.025378172       -10.4799867128
203.52544068       -11.4184218972
204.025503188       -12.4102348449
204.525565696       -13.4599950953
205.025628204       -14.5720350446
205.525690711       -15.7502527087
206.025753219       -16.9978470641
206.525815727       -18.3169725542
207.025878235       -19.7083003808
207.525940743       -21.1704780019
208.02600325       -22.6994863632
208.526065758       -24.28790861
209.026128266       -25.9241460756
209.526190774       -27.5916481466
210.026253282       -29.2682610274
210.526315789       -30.9258416514
211.026378297       -32.5303168545
211.526440805       -34.0423784176
212.026503313       -35.4189719815
212.526565821       -36.6156451961
213.026628329       -37.5896643015
213.526690836       -38.3036100443
214.026753344       -38.7289742328
214.526815852       -38.849167202
215.02687836       -38.6613753647
215.526940868       -38.176895932
216.027003375       -37.4198797271
216.527065883       -36.424739102
217.027128391       -35.2327224839
217.527190899       -33.8882527036
218.027253407       -32.4355672478
218.527315914       -30.9160326567
219.027378422       -29.3663028955
219.52744093       -27.8173136771
220.027503438       -26.2939850742
220.527565946       -24.8154489392
221.027628454       -23.395612779
221.527690961       -22.0438981986
222.027753469       -20.7660317863
222.527815977       -19.5648067573
223.027878485       -18.4407679242
223.527940993       -17.3927982034
224.0280035       -16.418602136
224.528066008       -15.5150923023
225.028128516       -14.6786898873
225.528191024       -13.9055526652
226.028253532       -13.1917436337
226.52831604       -12.533352386
227.028378547       -11.9265796646
227.528441055       -11.3677937946
228.028503563       -10.8535660263
228.528566071       -10.3806903603
229.028628579       -9.94619218277
229.528691086       -9.54732903023
230.028753594       -9.18158599127
230.528816102       -8.84666761618
231.02887861       -8.5404877131
231.528941118       -8.26115803288
232.029003625       -8.00697655977
232.529066133       -7.77641591233
233.029128641       -7.56811220122
233.529191149       -7.38085457496
234.029253657       -7.2135756014
234.529316165       -7.06534257336
235.029378672       -6.93534978508
235.52944118       -6.8229117981
236.029503688       -6.72745769635
236.529566196       -6.6485263182
237.029628704       -6.58576244612
237.529691211       -6.53891393015
238.029753719       -6.50782971853
238.529816227       -6.49245876634
239.029878735       -6.49284978935
239.529941243       -6.50915182452
240.03000375       -6.54161554924
240.530066258       -6.59059529655
241.030128766       -6.65655168133
241.530191274       -6.74005472013
242.030253782       -6.84178728135
242.53031629       -6.96254863814
243.030378797       -7.10325780911
243.530441305       -7.26495625309
244.030503813       -7.44880932642
244.530566321       -7.65610570287
245.030628829       -7.88825368536
245.530691336       -8.14677299172
246.030753844       -8.4332801584
246.530816352       -8.74946516641
247.03087886       -9.09705624564
247.530941368       -9.47776906648
248.031003875       -9.89323571442
248.531066383       -10.3449080413
249.031128891       -10.8339293401
249.531191399       -11.3609680429
250.031253907       -11.9260076763
250.531316415       -12.528089175
251.031378922       -13.1650055768
251.53144143       -13.832955955
252.031503938       -14.5261759811
252.531566446       -15.2365771499
253.031628954       -15.9534448454
253.531691461       -16.6632647063
254.031753969       -17.3497622685
254.531816477       -17.9942449825
255.031878985       -18.5763191585
255.531941493       -19.0750094343
256.032004001       -19.4702338236
256.532066508       -19.7444940064
257.032129016       -19.8845527282
257.532191524       -19.8828208862
258.032254032       -19.7381942168
258.53231654       -19.4561710457
259.032379047       -19.0482266588
259.532441555       -18.5305718238
260.032504063       -17.9225345699
260.532566571       -17.2448452766
261.032629079       -16.5180742325
261.532691586       -15.7613913958
262.032754094       -14.991723231
262.532816602       -14.2232992831
263.03287911       -13.4675266365
263.532941618       -12.7331056559
264.033004126       -12.0262990953
264.533066633       -11.3512795626
265.033129141       -10.7104990982
265.533191649       -10.1050434794
266.033254157       -9.53494972713
266.533316665       -8.9994770957
267.033379172       -8.4973297333
267.53344168       -8.02683394039
268.033504188       -7.5860753736
268.533566696       -7.17300242744
269.033629204       -6.78550197777
269.533691711       -6.42145312288
270.033754219       -6.07876379307
270.533816727       -5.7553942916
271.033879235       -5.44937107391
271.533941743       -5.1587934154
272.034004251       -4.88183507678
272.534066758       -4.61674265169
273.034129266       -4.36183196604
273.534191774       -4.11548368297
274.034254282       -3.8761391433
274.53431679       -3.64229742992
275.034379297       -3.41251468272
275.534441805       -3.18540680315
276.034504313       -2.95965687226
276.534566821       -2.7340288567
277.034629329       -2.50738948155
277.534691836       -2.27874048173
278.034754344       -2.04726375757
