#  x                 y             frequency           rot. str.
0.0      -0.023597742362      72.12      4.69
0.500062507813      -0.023269237437      106.21      -5.11
1.00012501563      -0.0229293375844      225.20      -28.25
1.50018752344      -0.0225776692291      234.87      -6.81
2.00025003125      -0.0222138447134      282.95      7.75
2.50031253907      -0.0218374616799      368.69      21.28
3.00037504688      -0.0214481024233      483.32      -61.64
3.50043755469      -0.0210453332093      528.75      64.05
4.00050006251      -0.0206287035592      567.31      -11.48
4.50056257032      -0.0201977454965      601.53      -48.43
5.00062507813      -0.0197519727563      642.98      -107.50
5.50068758595      -0.0192908799518      756.80      18.60
6.00075009376      -0.0188139416987      816.63      76.67
6.50081260158      -0.0183206116924      885.31      -59.77
7.00087510939      -0.0178103217364      912.65      -15.36
7.5009376172      -0.0172824807191      1003.92      16.54
8.00100012502      -0.0167364735354      1075.27      -1.51
8.50106263283      -0.0161716599494      1121.25      -86.05
9.00112514064      -0.0155873733959      1156.88      -22.15
9.50118764846      -0.0149829197154      1214.30      110.63
10.0012501563      -0.0143575758192      1225.46      -10.36
10.5013126641      -0.0137105882807      1297.37      -27.09
11.0013751719      -0.0130411718463      1329.46      3.34
11.5014376797      -0.0123485078641      1370.40      -5.76
12.0015001875      -0.0116317426214      1424.67      63.66
12.5015626953      -0.0108899855876      1436.22      -40.84
13.0016252032      -0.010122307556      1510.42      3.92
13.501687711      -0.00932773867661      1634.06      75.01
14.0017502188      -0.00850526637423      1809.37      11.14
14.5018127266      -0.00765383314364      2972.19      27.35
15.0018752344      -0.00677233421325      2985.13      3.83
15.5019377422      -0.00585961506891      3110.88      0.48
16.00200025      -0.00491446882809      3508.14      -17.83
16.5020627578      -0.00393563345424      3597.16      18.41
17.0021252657      -0.00292178880027      3688.97      -7.18
17.5021877735      -0.00187155346919      3729.68      2.00
18.0022502813       -0.000783481479217
18.5023127891       0.000343941280562
19.0023752969       0.00151230081893
19.5024378047       0.00272325905171
20.0025003125       0.00397855806889
20.5025628204       0.00528002467835
21.0026253282       0.00662957524681
21.502687836       0.00802922085975
22.0027503438       0.00948107282441
22.5028128516       0.0109873485415
23.0028753594       0.012550377774
23.5029378672       0.0141726093428
24.003000375       0.0158566182833
24.5030628829       0.0176051134976
25.0031253907       0.0194209459422
25.5031878985       0.0213071173933
26.0032504063       0.0232667898357
26.5033129141       0.0253032955259
27.0033754219       0.0274201477842
27.5034379297       0.0296210525755
28.0035004376       0.0319099209436
28.5035629454       0.0342908823714
29.0036254532       0.0367682991438
29.503687961       0.0393467817991
30.0037504688       0.0420312057619
30.5038129766       0.0448267292597
31.0038754844       0.0477388126358
31.5039379922       0.0507732391796
32.0040005001       0.0539361376114
32.5040630079       0.0572340063677
33.0041255157       0.0606737398515
33.5041880235       0.0642626568255
34.0042505313       0.0680085311456
34.5043130391       0.0719196250525
35.0043755469       0.0760047252602
35.5044380548       0.0802731821058
36.0045005626       0.0847349520529
36.5045630704       0.0894006438693
37.0046255782       0.0942815688378
37.504688086       0.0993897953918
38.0047505938       0.104738208614
38.5048131016       0.110340575079
39.0048756095       0.116211613584
39.5049381173       0.122367072344
40.0050006251       0.128823813337
40.5050631329       0.135599904505
41.0051256407       0.142714720645
41.5051881485       0.150189053877
42.0052506563       0.158045234713
42.5053131641       0.16630726482
43.005375672       0.17500096274
43.5054381798       0.184154123932
44.0055006876       0.193796696682
44.5055631954       0.203960975579
45.0056257032       0.21468181445
45.505688211       0.225996860867
46.0057507188       0.23794681454
46.5058132267       0.250575712199
47.0058757345       0.263931241791
47.5059382423       0.278065089165
48.0060007501       0.293033320683
48.5060632579       0.308896805554
49.0061257657       0.325721682026
49.5061882735       0.343579871894
50.0062507813       0.362549648161
50.5063132892       0.382716260952
51.006375797       0.404172627063
51.5064383048       0.427020088693
52.0065008126       0.451369246919
52.5065633204       0.477340875284
53.0066258282       0.50506691838
53.506688336       0.534691579347
54.0067508439       0.56637249865
54.5068133517       0.600282024062
55.0068758595       0.636608568183
55.5069383673       0.675558044567
56.0070008751       0.717355366171
56.5070633829       0.762245979505
57.0071258907       0.810497393699
57.5071883985       0.86240064439
58.0072509064       0.918271606386
58.5073134142       0.978452034406
59.007375922       1.04331016545
59.5074384298       1.11324065665
60.0075009376       1.18866355538
60.5075634454       1.27002190049
61.0076259532       1.35777743111
61.5076884611       1.45240373067
62.0077509689       1.55437595749
62.5078134767       1.66415611489
63.0078759845       1.78217260552
63.5079384923       1.90879262201
64.0080010001       2.04428579685
64.5080635079       2.1887775429
65.0081260158       2.3421907781
65.5081885236       2.50417540197
66.0082510314       2.67402617884
66.5083135392       2.8505918001
67.008376047       3.03218101861
67.5084385548       3.21647588518
68.0085010626       3.40046694954
68.5085635704       3.58042995734
69.0086260783       3.75196652884
69.5086885861       3.91013036846
70.0087510939       4.04965341249
70.5088136017       4.16527155849
71.0088761095       4.25212810637
71.5089386173       4.3062090371
72.0090011251       4.32474518363
72.509063633       4.30651052367
73.0091261408       4.251958564
73.5091886486       4.16316887056
74.0092511564       4.04361477659
74.5093136642       3.89779872916
75.009376172       3.73082278415
75.5094386798       3.54796384751
76.0095011876       3.35430912346
76.5095636955       3.15448437006
77.0096262033       2.95248420283
77.5096887111       2.75159563382
78.0097512189       2.5543955795
78.5098137267       2.36279964211
79.0098762345       2.17814098952
79.5099387423       2.00126230053
80.0100012502       1.83260864691
80.510063758       1.67231369639
81.0101262658       1.52027520527
81.5101887736       1.37621831708
82.0102512814       1.23974681312
82.5103137892       1.11038337972
83.010376297       0.987600379598
83.5104388049       0.87084271858
84.0105013127       0.759544319145
84.5105638205       0.653139540066
85.0106263283       0.5510706758
85.5106888361       0.452792463883
86.0107513439       0.357774341644
86.5108138517       0.265501032475
87.0108763595       0.175471908416
87.5109388674       0.0871994683985
88.0110013752       0.000207187177265
88.511063883       -0.0859730745443
89.0111263908       -0.171803956161
89.5111888986       -0.257745670632
90.0112514064       -0.344259178571
90.5113139142       -0.431809387577
91.0113764221       -0.52086830306
91.5114389299       -0.611918048767
92.0115014377       -0.705453656881
92.5115639455       -0.801985497727
93.0116264533       -0.902041175831
93.5116889611       -1.00616665982
94.0117514689       -1.11492633503
94.5118139767       -1.22890156651
95.0118764846       -1.34868723209
95.5119389924       -1.47488552856
96.0120015002       -1.60809616667
96.512064008       -1.74890185841
97.0121265158       -1.8978477725
97.5121890236       -2.05541341876
98.0122515314       -2.22197526384
98.5123140393       -2.39775835653
99.0123765471       -2.58277546798
99.5124390549       -2.77675289458
100.012501563       -2.97904334218
100.512564071       -3.18852844614
101.012626578       -3.40351668615
101.512689086       -3.62164678391
102.012751594       -3.83981185448
102.512814102       -4.05412479739
103.01287661       -4.25994910641
103.512939117       -4.45201916835
104.013001625       -4.62466765492
104.513064133       -4.77216297053
105.013126641       -4.88913732029
105.513189149       -4.97105977727
106.013251656       -5.01468636212
106.513314164       -5.01840976671
107.013376672       -4.98244162942
107.51343918       -4.90879026563
108.013501688       -4.8010384779
108.513564196       -4.66396630151
109.013626703       -4.50308974525
109.513689211       -4.32419239679
110.013751719       -4.13291389897
110.513814227       -3.93443535678
111.013876735       -3.73327582634
111.513939242       -3.53319309286
112.01400175       -3.33716911065
112.514064258       -3.14745556442
113.014126766       -2.96565592962
113.514189274       -2.79282459636
114.014251781       -2.62956893389
114.514314289       -2.47614522023
115.014376797       -2.33254345979
115.514439305       -2.19855907686
116.014501813       -2.073851405
116.514564321       -1.95799001017
117.014626828       -1.85049042339
117.514689336       -1.75084102016
118.014751844       -1.65852272364
118.514814352       -1.57302303285
119.01487686       -1.49384565661
119.514939367       -1.42051680862
120.015001875       -1.35258901101
120.515064383       -1.28964307319
121.015126891       -1.23128876163
121.515189399       -1.17716455376
122.015251906       -1.1269367715
122.515314414       -1.08029831385
123.015376922       -1.036967149
123.51543943       -0.996684681815
124.015501938       -0.95921407837
124.515564446       -0.924338604362
125.015626953       -0.891860015183
125.515689461       -0.86159702194
126.015751969       -0.83338384776
126.515814477       -0.807068881619
127.015876985       -0.782513432049
127.515939492       -0.759590579613
128.016002       -0.738184124845
128.516064508       -0.718187626894
129.016127016       -0.699503527312
129.516189524       -0.682042353008
130.016252032       -0.665721992296
130.516314539       -0.650467038051
131.016377047       -0.636208192206
131.516439555       -0.622881726142
132.016502063       -0.610428991866
132.516564571       -0.598795979231
133.016627078       -0.587932914861
133.516689586       -0.577793898782
134.016752094       -0.568336575123
134.516814602       -0.559521833588
135.01687711       -0.551313538713
135.516939617       -0.543678284186
136.017002125       -0.536585169818
136.517064633       -0.530005598927
137.017127141       -0.523913094192
137.517189649       -0.518283130168
138.017252157       -0.51309298086
138.517314664       -0.508321580925
139.017377172       -0.503949399197
139.51743968       -0.499958323361
140.017502188       -0.496331554747
140.517564696       -0.493053512269
141.017627203       -0.490109744696
141.517689711       -0.487486850457
142.017752219       -0.485172404316
142.517814727       -0.483154890282
143.017877235       -0.4814236402
143.517939742       -0.479968777522
144.01800225       -0.478781165797
144.518064758       -0.477852361477
145.018127266       -0.477174570659
145.518189774       -0.476740609437
146.018252282       -0.476543867557
146.518314789       -0.476578275104
147.018377297       -0.476838271969
147.518439805       -0.477318779872
148.018502313       -0.478015176751
148.518564821       -0.478923273313
149.018627328       -0.480039291596
149.518689836       -0.481359845384
150.018752344       -0.482881922347
150.518814852       -0.484602867767
151.01887736       -0.486520369759
151.518939867       -0.488632445867
152.019002375       -0.490937430956
152.519064883       -0.493433966313
153.019127391       -0.496120989878
153.519189899       -0.498997727556
154.019252407       -0.502063685518
154.519314914       -0.505318643478
155.019377422       -0.508762648857
155.51943993       -0.512396011823
156.019502438       -0.516219301154
156.519564946       -0.520233340891
157.019627453       -0.524439207761
157.519689961       -0.528838229336
158.019752469       -0.53343198291
158.519814977       -0.538222295087
159.019877485       -0.543211242045
159.519939992       -0.548401150488
160.0200025       -0.553794599269
160.520065008       -0.559394421673
161.020127516       -0.565203708378
161.520190024       -0.571225811074
162.020252532       -0.57746434677
162.520315039       -0.583923202766
163.020377547       -0.590606542336
163.520440055       -0.597518811108
164.020502563       -0.604664744174
164.520565071       -0.612049373943
165.020627578       -0.619678038763
165.520690086       -0.627556392345
166.020752594       -0.635690414002
166.520815102       -0.64408641976
167.02087761       -0.652751074361
167.520940118       -0.661691404203
168.021002625       -0.670914811277
168.521065133       -0.680429088126
169.021127641       -0.690242433906
169.521190149       -0.700363471594
170.021252657       -0.710801266415
170.521315164       -0.721565345557
171.021377672       -0.732665719254
171.52144018       -0.74411290332
172.021502688       -0.755917943224
172.521565196       -0.768092439811
173.021627703       -0.780648576771
173.521690211       -0.793599149977
174.021752719       -0.806957598821
174.521815227       -0.820738039678
175.021877735       -0.834955301657
175.521940243       -0.849624964796
176.02200275       -0.864763400881
176.522065258       -0.880387817076
177.022127766       -0.896516302578
177.522190274       -0.913167878518
178.022252782       -0.930362551357
178.522315289       -0.948121370045
179.022377797       -0.96646648723
179.522440305       -0.985421224842
180.022502813       -1.00501014439
180.522565321       -1.02525912235
181.022627828       -1.04619543107
181.522690336       -1.06784782561
182.022752844       -1.09024663701
182.522815352       -1.11342387262
183.02287786       -1.13741332388
183.522940368       -1.16225068237
184.023002875       -1.18797366479
184.523065383       -1.21462214755
185.023127891       -1.24223831198
185.523190399       -1.27086680087
186.023252907       -1.30055488758
186.523315414       -1.33135265873
187.023377922       -1.36331321163
187.52344043       -1.39649286799
188.023502938       -1.43095140522
188.523565446       -1.46675230711
189.023627953       -1.50396303556
189.523690461       -1.54265532557
190.023752969       -1.58290550543
190.523815477       -1.62479484484
191.023877985       -1.6684099335
191.523940493       -1.71384309313
192.024003       -1.76119282647
192.524065508       -1.81056430664
193.024128016       -1.86206991118
193.524190524       -1.91582980522
194.024253032       -1.97197257872
194.524315539       -2.0306359435
195.024378047       -2.09196749619
195.524440555       -2.15612555402
196.024503063       -2.22328007101
196.524565571       -2.29361364325
197.024628079       -2.36732261252
197.524690586       -2.44461827896
198.024753094       -2.52572823422
198.524815602       -2.61089782828
199.02487811       -2.70039178413
199.524940618       -2.7944959762
200.025003125       -2.89351939019
200.525065633       -2.99779628368
201.025128141       -3.10768856868
201.525190649       -3.2235884397
202.025253157       -3.34592127273
202.525315664       -3.47514882276
203.025378172       -3.6117727498
203.52544068       -3.75633850512
204.025503188       -3.90943961132
204.525565696       -4.07172237091
205.025628204       -4.24389103876
205.525690711       -4.42671349259
206.025753219       -4.6210274336
206.525815727       -4.82774714385
207.025878235       -5.04787081849
207.525940743       -5.28248847735
208.02600325       -5.53279043986
208.526065758       -5.80007631738
209.026128266       -6.0857644349
209.526190774       -6.39140153447
210.026253282       -6.71867253122
210.526315789       -7.06940998097
211.026378297       -7.44560276847
211.526440805       -7.84940332349
212.026503313       -8.28313240688
212.526565821       -8.74928015992
213.026628329       -9.25050166131
213.526690836       -9.78960466224
214.026753344       -10.3695264533
214.526815852       -10.9932959388
215.02687836       -11.6639759533
215.526940868       -12.384579672
216.027003375       -13.1579537119
216.527065883       -13.9866193367
217.027128391       -14.8725623277
217.527190899       -15.8169620011
218.027253407       -16.8198511888
218.527315914       -17.8797026919
219.027378422       -18.992944935
219.52744093       -20.1534216123
220.027503438       -21.3518281226
220.527565946       -22.5751817805
221.027628454       -23.8064115477
221.527690961       -25.0241816253
222.027753469       -26.2030828623
222.527815977       -27.314323825
223.027878485       -28.3270154099
223.527940993       -29.2100594629
224.0280035       -29.934526095
224.528066008       -30.4762593033
225.028128516       -30.8183289722
225.528191024       -30.9528999213
226.028253532       -30.8821509664
226.52831604       -30.6180471645
227.028378547       -30.1810003931
227.528441055       -29.597673616
228.028503563       -28.8983245802
228.528566071       -28.1141125153
229.028628579       -27.2747185679
229.528691086       -26.4065004585
230.028753594       -25.5312645917
230.528816102       -24.6656317068
231.02887861       -23.8209106416
231.528941118       -23.0033753176
232.029003625       -22.2148480318
232.529066133       -21.453509987
233.029128641       -20.7148731763
233.529191149       -19.9928482559
234.029253657       -19.280831097
234.529316165       -18.572714279
235.029378672       -17.8637215535
235.52944118       -17.1509749782
236.029503688       -16.4337403146
236.529566196       -15.7133498302
237.029628704       -14.9928573662
237.529691211       -14.2765211803
238.029753719       -13.5692246349
238.529816227       -12.8759327898
239.029878735       -12.201252882
239.529941243       -11.5491307699
240.03000375       -10.9226841149
240.530066258       -10.324152051
241.030128766       -9.75493118655
241.530191274       -9.21566670515
242.030253782       -8.70637167048
242.53031629       -8.22655427701
243.030378797       -7.77533956556
243.530441305       -7.35157785825
244.030503813       -6.95393645009
244.530566321       -6.58097396503
245.030628829       -6.23119849957
245.530691336       -5.90311154782
246.030753844       -5.59524001031
246.530816352       -5.30615855813
247.03087886       -5.0345044103
247.530941368       -4.77898629109
248.031003875       -4.53838902683
248.531066383       -4.31157495401
249.031128891       -4.09748305817
249.531191399       -3.89512655049
250.031253907       -3.7035894168
250.531316415       -3.52202233571
251.031378922       -3.34963825571
251.53144143       -3.18570783806
252.031503938       -3.02955490979
252.531566446       -2.88055202401
253.031628954       -2.73811618981
253.531691461       -2.60170480859
254.031753969       -2.47081183504
254.531816477       -2.3449641679
255.031878985       -2.22371826648
255.531941493       -2.10665698258
256.032004001       -1.99338659316
256.532066508       -1.88353401676
257.032129016       -1.77674419465
257.532191524       -1.67267761736
258.032254032       -1.57100797645
258.53231654       -1.47141992169
259.032379047       -1.37360690373
259.532441555       -1.27726908289
260.032504063       -1.18211128477
260.532566571       -1.08784098396
261.032629079       -0.994166297344
261.532691586       -0.900793968926
262.032754094       -0.807427328632
262.532816602       -0.713764208013
263.03287911       -0.619494796675
263.532941618       -0.524299424375
264.033004126       -0.42784625544
264.533066633       -0.329788884612
265.033129141       -0.229763827064
265.533191649       -0.127387900475
266.033254157       -0.0222555043734
266.533316665       0.0860641877083
267.033379172       0.1980300935
267.53344168       0.314132095232
268.033504188       0.434893844671
268.533566696       0.560875387676
269.033629204       0.69267544763
269.533691711       0.830933143037
270.033754219       0.976328830309
270.533816727       1.1295836534
271.033879235       1.29145724161
