#  x                 y             frequency           rot. str.
0.0      -0.0877569352359      46.33      -1.61
0.500062507813      -0.0889209600987      164.92      -7.14
1.00012501563      -0.0901179723062      218.23      -9.51
1.50018752344      -0.0913493358454      257.61      11.51
2.00025003125      -0.0926164866609      316.91      17.30
2.50031253907      -0.0939209372256      352.05      -63.29
3.00037504688      -0.0952642814486      379.52      15.34
3.50043755469      -0.0966481999505      544.73      -40.12
4.00050006251      -0.0980744657353      584.05      5.82
4.50056257032      -0.0995449502944      614.95      27.71
5.00062507813      -0.101061630179      717.41      -77.27
5.50068758595      -0.102626594081      759.72      17.57
6.00075009376      -0.104242050472      828.38      -50.34
6.50081260158      -0.105910335841      856.82      124.90
7.00087510939      -0.107633923595      917.78      10.18
7.5009376172      -0.109415433668      1012.52      -89.88
8.00100012502      -0.111257642928      1055.83      -27.66
8.50106263283      -0.113163496419      1124.65      21.23
9.00112514064      -0.115136119555      1146.15      27.58
9.50118764846      -0.117178831322      1195.11      -5.86
10.0012501563      -0.119295158605      1246.21      11.18
10.5013126641      -0.121488851739      1305.93      0.52
11.0013751719      -0.123763901399      1380.57      21.76
11.5014376797      -0.126124556967      1391.14      3.00
12.0015001875      -0.128575346509      1401.78      -58.86
12.5015626953      -0.13112109854      1437.48      22.96
13.0016252032      -0.133766965729      1496.80      -4.76
13.501687711      -0.136518450762      1644.57      23.59
14.0017502188      -0.13938143457      1782.32      14.24
14.5018127266      -0.142362207165      3010.00      -5.50
15.0018752344      -0.145467501349      3043.01      -2.82
15.5019377422      -0.148704529603      3099.76      1.99
16.00200025      -0.152081024475      3492.69      -2.71
16.5020627578      -0.155605282846      3579.68      6.24
17.0021252657      -0.159286214471      3711.61      -1.73
17.5021877735      -0.163133395258      3735.85      -9.40
18.0022502813       -0.167157125791
18.5023127891       -0.171368495649
19.0023752969       -0.175779454154
19.5024378047       -0.180402888234
20.0025003125       -0.185252708175
20.5025628204       -0.190343942105
21.0026253282       -0.195692840158
21.502687836       -0.201316989353
22.0027503438       -0.207235440327
22.5028128516       -0.213468847192
23.0028753594       -0.220039621863
23.5029378672       -0.226972104368
24.003000375       -0.234292750734
24.5030628829       -0.242030340171
25.0031253907       -0.250216203367
25.5031878985       -0.25888447379
26.0032504063       -0.268072363898
26.5033129141       -0.27782046817
27.0033754219       -0.288173094699
27.5034379297       -0.299178626887
28.0035004376       -0.310889916296
28.5035629454       -0.323364707054
29.0036254532       -0.336666091137
29.503687961       -0.350862992324
30.0037504688       -0.366030674421
30.5038129766       -0.382251266292
31.0038754844       -0.399614291942
31.5039379922       -0.418217188141
32.0040005001       -0.43816578415
32.5040630079       -0.459574707636
33.0041255157       -0.482567666862
33.5041880235       -0.507277540945
34.0042505313       -0.533846186185
34.5043130391       -0.562423836064
35.0043755469       -0.593167934237
35.5044380548       -0.626241192654
36.0045005626       -0.661808610388
36.5045630704       -0.700033123572
37.0046255782       -0.741069485996
37.504688086       -0.785055910053
38.0047505938       -0.832102941546
38.5048131016       -0.88227902068
39.0048756095       -0.935592228672
39.5049381173       -0.991967882781
40.0050006251       -1.05122198561
40.5050631329       -1.11303113108
41.0051256407       -1.17690038903
41.5051881485       -1.24213196697
42.0052506563       -1.30779902821
42.5053131641       -1.37273072334
43.005375672       -1.43551583748
43.5054381798       -1.49453280463
44.0055006876       -1.54801238476
44.5055631954       -1.59413536692
45.0056257032       -1.63116115885
45.505688211       -1.65757498961
46.0057507188       -1.67223382524
46.5058132267       -1.67448684219
47.0058757345       -1.66424785976
47.5059382423       -1.64200514233
48.0060007501       -1.60876654348
48.5060632579       -1.56595117823
49.0061257657       -1.51524848215
49.5061882735       -1.45846903136
50.0062507813       -1.39740876928
50.5063132892       -1.33374135341
51.006375797       -1.26894508057
51.5064383048       -1.20426370847
52.0065008126       -1.14069576686
52.5065633204       -1.07900481476
53.0066258282       -1.01974299795
53.506688336       -0.963281390417
54.0067508439       -0.909842237711
54.5068133517       -0.859529860637
55.0068758595       -0.812358355433
55.5069383673       -0.76827525139
56.0070008751       -0.727180972859
56.5070633829       -0.688944362974
57.0071258907       -0.653414735865
57.5071883985       -0.620431000067
58.0072509064       -0.589828390781
58.5073134142       -0.561443300173
59.007375922       -0.535116627432
59.5074384298       -0.510695998847
60.0075009376       -0.488037140849
60.5075634454       -0.467004629679
61.0076259532       -0.447472191422
61.5076884611       -0.429322685293
62.0077509689       -0.412447870423
62.5078134767       -0.396748030835
63.0078759845       -0.382131513405
63.5079384923       -0.368514218531
64.0080010001       -0.355819071696
64.5080635079       -0.343975495596
65.0081260158       -0.332918896088
65.5081885236       -0.32259017056
66.0082510314       -0.312935243935
66.5083135392       -0.303904635092
67.008376047       -0.295453054765
67.5084385548       -0.287539034809
68.0085010626       -0.280124587944
68.5085635704       -0.273174896549
69.0086260783       -0.266658028819
69.5086885861       -0.260544680413
70.0087510939       -0.254807939666
70.5088136017       -0.249423074483
71.0088761095       -0.244367339059
71.5089386173       -0.239619798684
72.0090011251       -0.235161170993
72.509063633       -0.23097368213
73.0091261408       -0.227040936429
73.5091886486       -0.22334779832
74.0092511564       -0.219880285282
74.5093136642       -0.216625470783
75.009376172       -0.213571396223
75.5094386798       -0.210706991024
76.0095011876       -0.208022000057
76.5095636955       -0.205506917701
77.0096262033       -0.203152927893
77.5096887111       -0.200951849584
78.0097512189       -0.198896087088
78.5098137267       -0.196978584847
79.0098762345       -0.195192786197
79.5099387423       -0.19353259575
80.0100012502       -0.191992345066
80.510063758       -0.190566761281
81.0101262658       -0.189250938446
81.5101887736       -0.188040311306
82.0102512814       -0.186930631309
82.5103137892       -0.185917944628
83.010376297       -0.184998572034
83.5104388049       -0.184169090445
84.0105013127       -0.183426315997
84.5105638205       -0.182767288516
85.0106263283       -0.182189257269
85.5106888361       -0.181689667871
86.0107513439       -0.181266150269
86.5108138517       -0.180916507699
87.0108763595       -0.180638706544
87.5109388674       -0.180430867015
88.0110013752       -0.180291254589
88.511063883       -0.18021827215
89.0111263908       -0.180210452768
89.5111888986       -0.18026645308
90.0112514064       -0.180385047213
90.5113139142       -0.180565121224
91.0113764221       -0.180805668009
91.5114389299       -0.181105782648
92.0115014377       -0.181464658168
92.5115639455       -0.181881581679
93.0116264533       -0.182355930872
93.5116889611       -0.18288717085
94.0117514689       -0.183474851275
94.5118139767       -0.184118603806
95.0118764846       -0.184818139825
95.5119389924       -0.185573248418
96.0120015002       -0.186383794619
96.512064008       -0.187249717884
97.0121265158       -0.188171030803
97.5121890236       -0.189147818025
98.0122515314       -0.190180235405
98.5123140393       -0.191268509349
99.0123765471       -0.192412936364
99.5124390549       -0.1936138828
100.012501563       -0.194871784792
100.512564071       -0.196187148382
101.012626578       -0.197560549833
101.512689086       -0.198992636128
102.012751594       -0.200484125658
102.512814102       -0.20203580909
103.01287661       -0.203648550433
103.512939117       -0.205323288284
104.013001625       -0.207061037275
104.513064133       -0.208862889717
105.013126641       -0.210730017441
105.513189149       -0.212663673857
106.013251656       -0.214665196216
106.513314164       -0.216736008108
107.013376672       -0.218877622178
107.51343918       -0.221091643095
108.013501688       -0.223379770765
108.513564196       -0.225743803812
109.013626703       -0.22818564333
109.513689211       -0.230707296938
110.013751719       -0.233310883128
110.513814227       -0.235998635948
111.013876735       -0.238772910027
111.513939242       -0.24163618596
112.01400175       -0.244591076083
112.514064258       -0.247640330661
113.014126766       -0.25078684451
113.514189274       -0.254033664087
114.014251781       -0.257383995083
114.514314289       -0.260841210546
115.014376797       -0.264408859567
115.514439305       -0.268090676593
116.014501813       -0.271890591376
116.514564321       -0.27581273964
117.014626828       -0.279861474496
117.514689336       -0.284041378663
118.014751844       -0.288357277575
118.514814352       -0.29281425342
119.01487686       -0.297417660191
119.514939367       -0.302173139835
120.015001875       -0.307086639587
120.515064383       -0.312164430565
121.015126891       -0.317413127761
121.515189399       -0.322839711517
122.015251906       -0.32845155062
122.515314414       -0.334256427146
123.015376922       -0.340262563216
123.51543943       -0.346478649806
124.015501938       -0.352913877805
124.515564446       -0.359577971516
125.015626953       -0.3664812248
125.515689461       -0.373634540127
126.015751969       -0.381049470762
126.515814477       -0.388738266397
127.015876985       -0.396713922531
127.515939492       -0.404990233949
128.016002       -0.413581852683
128.516064508       -0.422504350869
129.016127016       -0.431774288984
129.516189524       -0.441409289957
130.016252032       -0.451428119736
130.516314539       -0.461850774936
131.016377047       -0.472698578274
131.516439555       -0.483994282547
132.016502063       -0.495762184026
132.516564571       -0.508028246205
133.016627078       -0.52082023497
133.516689586       -0.534167866341
134.016752094       -0.548102968112
134.516814602       -0.562659656804
135.01687711       -0.577874531563
135.516939617       -0.593786886772
136.017002125       -0.610438945365
136.517064633       -0.627876115046
137.017127141       -0.64614726987
137.517189649       -0.665305059905
138.017252157       -0.685406251988
138.517314664       -0.706512104954
139.017377172       -0.728688783028
139.51743968       -0.752007811505
140.017502188       -0.776546579251
140.517564696       -0.802388893041
141.017627203       -0.829625589189
141.517689711       -0.858355208514
142.017752219       -0.888684741131
142.517814727       -0.920730448136
143.017877235       -0.954618767733
143.517939742       -0.990487313788
144.01800225       -1.02848597515
144.518064758       -1.06877812427
145.018127266       -1.11154194342
145.518189774       -1.1569718767
146.018252282       -1.2052802145
146.518314789       -1.25669881572
147.018377297       -1.31148096997
147.518439805       -1.36990339751
148.018502313       -1.43226837853
148.518564821       -1.4989059937
149.018627328       -1.57017644544
149.518689836       -1.64647241087
150.018752344       -1.72822135333
150.518814852       -1.81588768543
151.01887736       -1.90997463239
151.518939867       -2.01102558469
152.019002375       -2.11962465122
152.519064883       -2.23639602244
153.019127391       -2.36200162334
153.519189899       -2.49713637135
154.019252407       -2.64252015158
154.519314914       -2.7988853771
155.019377422       -2.96695871808
155.51943993       -3.14743527174
156.019502438       -3.34094313201
156.519564946       -3.54799605428
157.019627453       -3.76893178562
157.519689961       -4.0038337822
158.019752469       -4.25243466627
158.519814977       -4.5140011564
159.019877485       -4.78720265991
159.519939992       -5.06996956336
160.0200025       -5.35935268262
160.520065008       -5.65140218006
161.020127516       -5.94109172573
161.520190024       -6.22232003391
162.020252532       -6.48802433959
162.520315039       -6.73043535167
163.020377547       -6.94148754783
163.520440055       -7.11337141426
164.020502563       -7.23917876698
164.520565071       -7.31355735313
165.020627578       -7.33326900223
165.520690086       -7.29754818746
166.020752594       -7.20818933413
166.520815102       -7.06934483814
167.02087761       -6.88707518433
167.520940118       -6.66873879969
168.021002625       -6.42232927853
168.521065133       -6.15585928039
169.021127641       -5.87686166124
169.521190149       -5.59204188373
170.021252657       -5.30708283662
170.521315164       -5.02658047455
171.021377672       -4.75407759049
171.52144018       -4.49216144506
172.021502688       -4.2425953883
172.521565196       -4.00646169086
173.021627703       -3.78430017046
173.521690211       -3.57623352621
174.021752719       -3.3820750778
174.521815227       -3.20141785954
175.021877735       -3.03370600185
175.521940243       -2.8782903753
176.02200275       -2.73447088141
176.522065258       -2.6015277937
177.022127766       -2.47874435862
177.522190274       -2.36542257406
178.022252782       -2.26089374622
178.522315289       -2.16452512272
179.022377797       -2.07572363119
179.522440305       -1.99393752483
180.022502813       -1.91865654927
180.522565321       -1.84941109571
181.022627828       -1.78577068694
181.522690336       -1.72734205196
182.022752844       -1.67376697456
182.522815352       -1.6247200485
183.02287786       -1.57990643209
183.522940368       -1.53905966562
184.023002875       -1.50193959313
184.523065383       -1.46833041491
185.023127891       -1.43803888513
185.523190399       -1.41089266176
186.023252907       -1.38673881019
186.523315414       -1.3654424584
187.023377922       -1.34688559936
187.52344043       -1.33096603509
188.023502938       -1.31759645607
188.523565446       -1.30670364995
189.023627953       -1.29822783321
189.523690461       -1.29212210077
190.023752969       -1.28835198832
190.523815477       -1.28689514383
191.023877985       -1.28774110482
191.523940493       -1.29089117953
192.024003       -1.29635843068
192.524065508       -1.30416776177
193.024128016       -1.31435610671
193.524190524       -1.3269727248
194.024253032       -1.3420796039
194.524315539       -1.35975197587
195.024378047       -1.38007894931
195.524440555       -1.40316426558
196.024503063       -1.42912718525
196.524565571       -1.45810351284
197.024628079       -1.49024676861
197.524690586       -1.52572951664
198.024753094       -1.56474485889
198.524815602       -1.60750810469
199.02487811       -1.65425862438
199.524940618       -1.70526189435
200.025003125       -1.76081173775
200.525065633       -1.82123276095
201.025128141       -1.88688297881
201.525190649       -1.95815661221
202.025253157       -2.0354870272
202.525315664       -2.11934976554
203.025378172       -2.2102655893
203.52544068       -2.30880342519
204.025503188       -2.4155830447
204.525565696       -2.53127724908
205.025628204       -2.65661324046
205.525690711       -2.79237274474
206.025753219       -2.93939030278
206.525815727       -3.09854895616
207.025878235       -3.27077231532
207.525940743       -3.45701170585
208.02600325       -3.65822674162
208.526065758       -3.87535727778
209.026128266       -4.10928427514
209.526190774       -4.36077670563
210.026253282       -4.63042133336
210.526315789       -4.91853215703
211.026378297       -5.22503671528
211.526440805       -5.54933764176
212.026503313       -5.89015020563
212.526565821       -6.24532052678
213.026628329       -6.61163509412
213.526690836       -6.9846402488
214.026753344       -7.35849992721
214.526815852       -7.72592967907
215.02687836       -8.07825190476
215.526940868       -8.40561716888
216.027003375       -8.69742457935
216.527065883       -8.94294716331
217.027128391       -9.13212663043
217.527190899       -9.25645319362
218.027253407       -9.30980430713
218.527315914       -9.28909834043
219.027378422       -9.19463786156
219.52744093       -9.03007264728
220.027503438       -8.80199005732
220.527565946       -8.51921546808
221.027628454       -8.19195464204
221.527690961       -7.83092118602
222.027753469       -7.44656865994
222.527815977       -7.04850247592
223.027878485       -6.64509846543
223.527940993       -6.24331585338
224.0280035       -5.84866830401
224.528066008       -5.46530740115
225.028128516       -5.09617453292
225.528191024       -4.74318489546
226.028253532       -4.40741721063
226.52831604       -4.08929216172
227.028378547       -3.78873020294
227.528441055       -3.50528494095
228.028503563       -3.23825190361
228.528566071       -2.98675460613
229.028628579       -2.74981083648
229.528691086       -2.52638238882
230.028753594       -2.31541136391
230.528816102       -2.11584583056
231.02887861       -1.92665723139
231.528941118       -1.74685149578
232.029003625       -1.57547543499
232.529066133       -1.41161965687
233.029128641       -1.25441895508
233.529191149       -1.10305089815
234.029253657       -0.956733160981
234.529316165       -0.814719998317
235.029378672       -0.67629814878
235.52944118       -0.540782373922
236.029503688       -0.407510772517
236.529566196       -0.275839962666
237.029628704       -0.145140188936
237.529691211       -0.0147903861521
238.029753719       0.115826786492
238.529816227       0.247329939295
239.029878735       0.380343978987
239.529941243       0.51550517625
240.03000375       0.653466279403
240.530066258       0.794901673384
241.030128766       0.940512571616
241.530191274       1.09103221047
242.030253782       1.24723099052
242.53031629       1.40992147284
243.030378797       1.57996309033
243.530441305       1.75826636793
244.030503813       1.94579635874
244.530566321       2.14357488804
245.030628829       2.3526810471
245.530691336       2.57424918609
246.030753844       2.80946341041
246.530816352       3.05954728004
247.03087886       3.32574704045
247.530941368       3.60930627705
248.031003875       3.91142939476
248.531066383       4.23323081231
249.031128891       4.57566629502
249.531191399       4.93944254698
250.031253907       5.32490123647
250.531316415       5.73187432474
251.031378922       6.15950930624
251.53144143       6.60606624593
252.031503938       7.06869384886
252.531566446       7.54319962661
253.031628954       8.0238395268
253.531691461       8.5031643081
254.031753969       8.97197125926
254.531816477       9.41941665593
255.031878985       9.83334120724
255.531941493       10.2008420408
256.032004001       10.5090872945
256.532066508       10.7463157579
257.032129016       10.9029052704
257.532191524       10.9723483289
258.032254032       10.9519618232
258.53231654       10.8431922082
259.032379047       10.6514535158
259.532441555       10.3855316705
260.032504063       10.0566738756
260.532566571       9.67753055133
261.032629079       9.26111940146
261.532691586       8.81994442452
262.032754094       8.36534591332
262.532816602       7.90710067209
263.03287911       7.45324853134
263.532941618       7.01009683362
264.033004126       6.58234713279
264.533066633       6.17329267986
265.033129141       5.78504568041
265.533191649       5.41876535121
266.033254157       5.07486875405
266.533316665       4.75321501409
267.033379172       4.45325962054
267.53344168       4.17417937419
268.033504188       3.91497070723
268.533566696       3.67452507304
269.033629204       3.45168532178
269.533691711       3.24528676065
270.033754219       3.05418616785
270.533816727       2.87728152239
271.033879235       2.71352471098
