#  x                 y             frequency           intensity
0.0       0.0459543254411       10.93       0.11420
0.500062507813       0.0500994817786       26.37       0.23906
1.00012501563       0.0544253605362       42.85       0.92803
1.50018752344       0.0589182456398       62.23       0.01229
2.00025003125       0.0635623650783       84.09       0.75346
2.50031253907       0.0683401228108       111.52       1.62113
3.00037504688       0.0732323942852       132.54       1.24655
3.50043755469       0.0782188820494       142.34       0.10006
4.00050006251       0.0832785255941       148.02       0.41845
4.50056257032       0.0883899572233       161.39       0.36623
5.00062507813       0.0935319934972       202.18       2.34875
5.50068758595       0.0986841497314       209.21       0.96436
6.00075009376       0.103827163277       238.21       2.47853
6.50081260158       0.108943509933       243.89       3.02706
7.00087510939       0.114017896964       248.95       1.35951
7.5009376172       0.119037715886       267.39       83.40835
8.00100012502       0.123993438473       292.65       8.33016
8.50106263283       0.12887894046       319.24       0.78599
9.00112514064       0.133691739034       343.93       3.95704
9.50118764846       0.138433132588       362.14       0.21265
10.0012501563       0.143108234138       382.61       3.33833
10.5013126641       0.147725893357       389.44       3.07302
11.0013751719       0.152298506126       416.37       2.61365
11.5014376797       0.15684171481       437.33       4.26553
12.0015001875       0.161374006922       453.17       5.18153
12.5015626953       0.165916224298       472.15       3.22060
13.0016252032       0.170490999146       520.05       1.84175
13.501687711       0.175122137241       532.11       6.20801
14.0017502188       0.179833971788       549.73       7.11179
14.5018127266       0.184650714071       552.34       5.91183
15.0018752344       0.189595828564       563.84       6.88197
15.5019377422       0.19469146081       581.40       3.22678
16.00200025       0.199957945755       605.08       0.54297
16.5020627578       0.205413422423       613.29       7.67999
17.0021252657       0.211073577827       641.85       5.47802
17.5021877735       0.21695153878       651.27       8.21781
18.0022502813       0.223057924954       653.22       56.23518
18.5023127891       0.229401070303       661.84       44.92587
19.0023752969       0.23598741289       701.96       4.89838
19.5024378047       0.242822045623       729.85       12.94786
20.0025003125       0.249909412536       774.03       7.13602
20.5025628204       0.257254127483       779.68       2.34333
21.0026253282       0.264861884654       796.07       1.72005
21.502687836       0.272740423574       816.34       7.38243
22.0027503438       0.280900505481       833.10       18.39167
22.5028128516       0.289356853559       844.37       4.96438
23.0028753594       0.298129006618       856.32       1.39252
23.5029378672       0.307242034774       861.47       14.72737
24.003000375       0.316727066582       865.93       52.34949
24.5030628829       0.326621580117       883.25       9.13608
25.0031253907       0.336969415558       891.93       10.21484
25.5031878985       0.347820474063       927.97       16.55840
26.0032504063       0.359230076768       940.86       0.27589
26.5033129141       0.371257968587       948.32       13.37811
27.0033754219       0.383966963677       974.21       0.00704
27.5034379297       0.397421242705       982.96       0.59889
28.0035004376       0.411684325889       987.57       0.37200
28.5035629454       0.426816759781       991.33       17.25299
29.0036254532       0.442873569321       1017.78       9.69837
29.503687961       0.459901539352       1025.68       35.46563
30.0037504688       0.477936400964       1043.41       9.43187
30.5038129766       0.497000007273       1045.41       33.49621
31.0038754844       0.517097590017       1062.32       22.19530
31.5039379922       0.538215192368       1065.88       29.15673
32.0040005001       0.560317374208       1080.73       3.90733
32.5040630079       0.58334528368       1109.73       25.91977
33.0041255157       0.60721518295       1126.14       12.34039
33.5041880235       0.631817506908       1134.69       4.44033
34.0042505313       0.65701652108       1155.47       12.05879
34.5043130391       0.682650629725       1160.62       11.39596
35.0043755469       0.708533367244       1174.84       0.59082
35.5044380548       0.734455086286       1186.58       1.80224
36.0045005626       0.760185334874       1205.53       23.49968
36.5045630704       0.785475893148       1217.80       40.76813
37.0046255782       0.810064418847       1231.74       2.25982
37.504688086       0.833678629966       1239.62       17.12082
38.0047505938       0.856040934136       1249.24       14.72079
38.5048131016       0.876873397753       1260.43       91.25475
39.0048756095       0.89590293438       1264.46       100.67910
39.5049381173       0.912866582167       1276.23       14.08046
40.0050006251       0.927516734163       1286.74       5.65099
40.5050631329       0.939626183973       1292.96       33.48689
41.0051256407       0.948992852117       1327.89       1.27079
41.5051881485       0.955444065849       1334.92       2.13720
42.0052506563       0.958840276694       1338.94       6.43608
42.5053131641       0.95907811532       1348.23       16.58048
43.005375672       0.956092701958       1354.48       11.49921
43.5054381798       0.949859151844       1356.92       3.34595
44.0055006876       0.94039323828       1363.60       8.28547
44.5055631954       0.927751200081       1376.72       1.60028
45.0056257032       0.912028704607       1381.53       7.07546
45.505688211       0.893359001305       1383.86       30.44466
46.0057507188       0.871910323007       1389.44       3.13104
46.5058132267       0.847882612319       1398.68       11.09746
47.0058757345       0.821503667689       1418.59       14.45275
47.5059382423       0.793024817608       1432.60       13.34222
48.0060007501       0.762716241513       1468.12       35.69074
48.5060632579       0.730862062094       1478.84       4.66773
49.0061257657       0.697755335758       1490.00       3.57774
49.5061882735       0.663693066107       1491.86       7.69566
50.0062507813       0.628971359628       1494.62       3.95321
50.5063132892       0.593880833755       1505.54       8.63208
51.006375797       0.55870237551       1505.94       4.99714
51.5064383048       0.523703334619       1511.49       58.70256
52.0065008126       0.489134218917       1513.88       2.52503
52.5065633204       0.455225942713       1545.50       63.74802
53.0066258282       0.422187661104       1609.76       1.97950
53.506688336       0.390205205759       1639.49       18.21933
54.0067508439       0.359440120874       1662.80       110.36993
54.5068133517       0.330029282424       2207.55       14.77099
55.0068758595       0.302085069862       3004.33       37.97729
55.5069383673       0.275696047367       3019.04       9.77664
56.0070008751       0.250928101834       3025.43       6.62710
56.5070633829       0.22782597717       3029.07       25.30774
57.0071258907       0.206415139101       3031.86       29.84532
57.5071883985       0.186703901523       3043.87       61.60237
58.0072509064       0.168685744402       3050.08       24.66545
58.5073134142       0.152341753978       3059.00       33.61548
59.007375922       0.137643118476       3062.73       3.52795
59.5074384298       0.1245536163       3065.25       34.97287
60.0075009376       0.11303203849       3071.60       24.10829
60.5075634454       0.103034492862       3076.97       36.93259
61.0076259532       0.0945165433686       3088.69       58.90306
61.5076884611       0.0874351446024       3115.87       18.54771
62.0077509689       0.0817503378626       3132.87       27.50178
62.5078134767       0.0774266815673       3138.19       28.71372
63.0078759845       0.074434394996       3186.99       1.44534
63.5079384923       0.0727502002524       3202.88       7.97987
64.0080010001       0.0723578529494       3218.92       9.28479
64.5080635079       0.0732483574348       3236.97       5.58983
65.0081260158       0.0754198674362       3469.71       66.11995
65.5081885236       0.0788772778499       3786.10       13.47714
66.0082510314       0.0836315181197
66.5083135392       0.0896985622866
67.008376047       0.0970981754165
67.5084385548       0.105852420758
68.0085010626       0.115983956653
68.5085635704       0.127514156921
69.0086260783       0.140461093057
69.5086885861       0.154837421107
70.0087510939       0.170648220304
70.5088136017       0.187888834328
71.0088761095       0.206542769262
71.5089386173       0.226579704638
72.0090011251       0.247953675301
72.509063633       0.270601481876
73.0091261408       0.294441386311
73.5091886486       0.319372145995
74.0092511564       0.345272435416
74.5093136642       0.372000697931
75.009376172       0.399395462254
75.5094386798       0.427276148563
76.0095011876       0.455444378099
76.5095636955       0.483685787818
77.0096262033       0.511772338523
77.5096887111       0.539465091261
78.0097512189       0.566517413086
78.5098137267       0.592678559995
79.0098762345       0.617697572471
79.5099387423       0.641327408055
80.0100012502       0.663329226159
80.510063758       0.683476733403
81.0101262658       0.701560493265
81.5101887736       0.71739210226
82.0102512814       0.730808136071
82.5103137892       0.741673773262
83.010376297       0.749886011256
83.5104388049       0.755376398825
84.0105013127       0.758113221292
84.5105638205       0.758103088349
85.0106263283       0.755391889472
85.5106888361       0.75006509774
86.0107513439       0.742247418864
86.5108138517       0.732101797758
87.0108763595       0.719827809522
87.5109388674       0.705659474675
88.0110013752       0.689862549475
88.511063883       0.672731350813
89.0111263908       0.654585181269
89.5111888986       0.6357644234
90.0112514064       0.616626373155
90.5113139142       0.597540880767
91.0113764221       0.578885863744
91.5114389299       0.561042751153
92.0115014377       0.544391911708
92.5115639455       0.529308110759
93.0116264533       0.51615603378
93.5116889611       0.505285906826
94.0117514689       0.497029238273
94.5118139767       0.491694701415
95.0118764846       0.489564174462
95.5119389924       0.490888953511
96.0120015002       0.495886155135
96.512064008       0.504735328355
97.0121265158       0.517575300791
97.5121890236       0.534501290221
98.0122515314       0.555562320364
98.5123140393       0.580758987666
99.0123765471       0.610041633679
99.5124390549       0.643308984541
100.012501563       0.680407324349
100.512564071       0.721130272248
101.012626578       0.765219233199
101.512689086       0.812364589106
102.012751594       0.862207690031
102.512814102       0.914343694262
103.01287661       0.968325291215
103.512939117       1.02366732259
104.013001625       1.07985229538
104.513064133       1.13633675583
105.013126641       1.19255846705
105.513189149       1.24794430561
106.013251656       1.30191876502
106.513314164       1.35391292818
107.013376672       1.40337374655
107.51343918       1.4497734439
108.013501688       1.49261884574
108.513564196       1.53146042532
109.013626703       1.56590085158
109.513689211       1.59560282623
110.013751719       1.6202960049
110.513814227       1.63978281224
111.013876735       1.65394298155
111.513939242       1.66273667639
112.01400175       1.66620608347
112.514064258       1.66447540199
113.014126766       1.65774919337
113.514189274       1.64630909626
114.014251781       1.63050895252
114.514314289       1.61076843059
115.014376797       1.58756527075
115.514439305       1.56142631199
116.014501813       1.53291749115
116.514564321       1.50263303079
117.014626828       1.47118405222
117.514689336       1.43918686404
118.014751844       1.40725118356
118.514814352       1.37596854959
119.01487686       1.34590117865
119.514939367       1.31757150546
120.015001875       1.29145263034
120.515064383       1.26795987384
121.015126891       1.24744361162
121.515189399       1.23018353191
122.015251906       1.21638442429
122.515314414       1.20617357296
123.015376922       1.19959979094
123.51543943       1.19663409466
124.015501938       1.19717198177
124.515564446       1.20103723967
125.015626953       1.20798717926
125.515689461       1.21771915728
126.015751969       1.22987822393
126.515814477       1.24406570842
127.015876985       1.25984853656
127.515939492       1.27676906004
128.016002       1.29435516793
128.516064508       1.31213044759
129.016127016       1.32962416372
129.516189524       1.34638083202
130.016252032       1.3619691767
130.516314539       1.37599027926
131.016377047       1.38808474889
131.516439555       1.39793877188
132.016502063       1.40528892835
132.516564571       1.40992569787
133.016627078       1.41169561107
133.516689586       1.41050204038
134.016752094       1.40630465893
134.516814602       1.39911763133
135.01687711       1.38900663241
135.516939617       1.37608481872
136.017002125       1.36050790247
136.517064633       1.34246849728
137.017127141       1.32218991903
137.517189649       1.29991963355
138.017252157       1.27592254447
138.517314664       1.25047431084
139.017377172       1.22385487362
139.51743968       1.19634235514
140.017502188       1.16820747532
140.517564696       1.13970860427
141.017627203       1.11108754435
141.517689711       1.08256610543
142.017752219       1.05434350798
142.517814727       1.02659461912
143.017877235       0.999468998922
143.517939742       0.973090708951
144.01800225       0.947558812656
144.518064758       0.922948479014
145.018127266       0.899312586928
145.518189774       0.876683718827
146.018252282       0.85507642769
146.518314789       0.834489662311
147.018377297       0.814909240724
147.518439805       0.79631027088
148.018502313       0.778659430293
148.518564821       0.76191703175
149.018627328       0.746038819499
149.518689836       0.730977458747
150.018752344       0.716683699935
150.518814852       0.703107217376
151.01887736       0.690197138506
151.518939867       0.677902294779
152.019002375       0.66617123735
152.519064883       0.654952069907
153.019127391       0.644192156981
153.519189899       0.633837768716
154.019252407       0.623833722441
154.519314914       0.614123077733
155.019377422       0.604646935185
155.51943993       0.5953443804
156.019502438       0.586152604198
156.519564946       0.577007218349
157.019627453       0.567842773848
157.519689961       0.55859347653
158.019752469       0.549194083186
158.519814977       0.539580950908
159.019877485       0.529693203501
159.519939992       0.519473971948
160.0200025       0.508871661235
160.520065008       0.497841193575
161.020127516       0.486345178178
161.520190024       0.474354960124
162.020252532       0.461851505456
162.520315039       0.448826086026
163.020377547       0.435280735519
163.520440055       0.421228457099
164.020502563       0.406693172845
164.520565071       0.391709415048
165.020627578       0.376321769223
165.520690086       0.360584087832
166.020752594       0.344558501958
166.520815102       0.328314265157
167.02087761       0.311926469266
167.520940118       0.295474675886
168.021002625       0.279041509528
168.521065133       0.262711259024
169.021127641       0.246568532774
169.521190149       0.230697010946
170.021252657       0.215178333964
170.521315164       0.200091161768
171.021377672       0.185510432591
171.52144018       0.171506843724
172.021502688       0.158146570025
172.521565196       0.145491229082
173.021627703       0.133598095197
173.521690211       0.122520557759
174.021752719       0.11230881338
174.521815227       0.103010775402
175.021877735       0.0946731790984
175.521940243       0.087342856167
176.02200275       0.0810681478795
176.522065258       0.0759004225174
177.022127766       0.0718956594564
177.522190274       0.0691160594032
178.022252782       0.0676316378172
178.522315289       0.0675217564436
179.022377797       0.0688765461458
179.522440305       0.0717981728898
180.022502813       0.0764018978561
180.522565321       0.0828168823392
181.022627828       0.0911866884579
181.522690336       0.1016694279
182.022752844       0.114437513124
182.522815352       0.129676968838
183.02287786       0.147586266284
183.522940368       0.168374649165
184.023002875       0.192259927884
184.523065383       0.219465728423
185.023127891       0.250218193486
185.523190399       0.284742146572
186.023252907       0.323256744109
186.523315414       0.365970656631
187.023377922       0.413076836653
187.52344043       0.464746948162
188.023502938       0.521125549799
188.523565446       0.58232414042
189.023627953       0.648415190971
189.523690461       0.719426299971
190.023752969       0.795334620501
190.523815477       0.876061713967
191.023877985       0.961468989223
191.523940493       1.05135388459
192.024003       1.14544694432
192.524065508       1.24340993014
193.024128016       1.34483509207
193.524190524       1.449245702
194.024253032       1.55609792713
194.524315539       1.66478409104
195.024378047       1.77463733649
195.524440555       1.88493766855
196.024503063       1.99491931993
196.524565571       2.10377934289
197.024628079       2.21068729646
197.524690586       2.31479586404
198.024753094       2.41525220658
198.524815602       2.51120983115
199.02487811       2.60184073572
199.524940618       2.68634757759
200.025003125       2.76397560756
200.525065633       2.8340241135
201.025128141       2.89585712604
201.525190649       2.94891315571
202.025253157       2.99271375387
202.525315664       3.02687071896
203.025378172       3.05109180378
203.52544068       3.06518481751
204.025503188       3.06906005677
204.525565696       3.06273104216
205.025628204       3.0463135781
205.525690711       3.02002319476
206.025753219       2.98417106824
206.525815727       2.93915854937
207.025878235       2.88547046105
207.525940743       2.82366734788
208.02600325       2.75437688019
208.526065758       2.67828462654
209.026128266       2.59612441445
209.526190774       2.50866849888
210.026253282       2.41671775181
210.526315789       2.32109207473
211.026378297       2.22262121978
211.526440805       2.12213618498
212.026503313       2.02046132549
212.526565821       1.918407297
213.026628329       1.81676491943
213.526690836       1.71630002067
214.026753344       1.61774929137
214.526815852       1.52181715312
215.02687836       1.42917361556
215.526940868       1.34045307183
216.027003375       1.25625395886
216.527065883       1.17713918738
217.027128391       1.10363722897
217.527190899       1.03624373222
218.027253407       0.975423528626
218.527315914       0.921612881055
219.027378422       0.875221823208
219.52744093       0.836636438433
220.027503438       0.806220929652
220.527565946       0.784319339703
221.027628454       0.77125679263
221.527690961       0.767340141425
222.027753469       0.772857926171
222.527815977       0.788079568133
223.027878485       0.813253749823
223.527940993       0.848605957894
224.0280035       0.894335194415
224.528066008       0.950609892025
225.028128516       1.01756309898
225.528191024       1.09528703053
226.028253532       1.18382711259
226.52831604       1.28317567149
227.028378547       1.3932654491
227.528441055       1.51396314513
228.028503563       1.64506320677
228.528566071       1.78628210052
229.028628579       1.93725331036
229.528691086       2.0975233112
230.028753594       2.26654876572
230.528816102       2.44369518689
231.02887861       2.6282372976
231.528941118       2.81936130276
232.029003625       3.01616926934
232.529066133       3.21768578567
233.029128641       3.42286704395
233.529191149       3.63061245997
234.029253657       3.83977891188
234.529316165       4.04919764667
