#  x                 y             frequency           intensity
0.0       0.000168905823235       28.73       0.00316
0.500062507813       0.000217562649495       32.75       0.71286
1.00012501563       0.000279153717989       42.37       0.33029
1.50018752344       0.000356797530272       54.53       0.21824
2.00025003125       0.000454275827676       82.41       1.01417
2.50031253907       0.00057615169019       130.88       0.53237
3.00037504688       0.000727903105267       133.98       0.48315
3.50043755469       0.000916072744497       146.05       0.45226
4.00050006251       0.00114843439686       150.70       0.45405
4.50056257032       0.00143417612663       165.04       0.21057
5.00062507813       0.00178409974288       201.93       8.50748
5.50068758595       0.00221083557897       206.79       0.94114
6.00075009376       0.00272907088025       236.58       0.33148
6.50081260158       0.00335578928614       241.87       1.65170
7.00087510939       0.00411051797314       249.07       3.37859
7.5009376172       0.0050155780083       267.59       37.18196
8.00100012502       0.00609633236508       297.97       51.86146
8.50106263283       0.00738142489904       314.77       4.57386
9.00112514064       0.00890300240117       343.17       6.09971
9.50118764846       0.0106969106823       360.22       0.13561
10.0012501563       0.0128028545397       373.69       2.08866
10.5013126641       0.0152645104732       392.17       1.94478
11.0013751719       0.0181295802109       424.64       3.32976
11.5014376797       0.0214497725473       430.52       2.66895
12.0015001875       0.0252807007466       458.12       2.74765
12.5015626953       0.0296816829004       473.25       3.30900
13.0016252032       0.0347154332118       516.42       9.50817
13.501687711       0.0404476332591       532.70       3.07239
14.0017502188       0.0469463739352       545.41       10.78306
14.5018127266       0.0542814609694       553.07       0.69516
15.0018752344       0.0625235797548       562.36       2.81909
15.5019377422       0.0717433185949       585.19       1.08923
16.00200025       0.0820100534205       611.23       3.10970
16.5020627578       0.093390701445       615.08       6.39532
17.0021252657       0.105948356021       638.69       3.30674
17.5021877735       0.119740820013       652.92       46.98095
18.0022502813       0.13481906016       655.47       44.28937
18.5023127891       0.151225609963       660.42       18.44178
19.0023752969       0.168992953447       704.35       1.74709
19.5024378047       0.188141926431       733.62       14.83755
20.0025003125       0.208680175558       776.02       0.05283
20.5025628204       0.230600717974       788.00       6.05614
21.0026253282       0.253880646149       804.53       1.02894
21.502687836       0.278480022504       815.29       13.55051
22.0027503438       0.304341007414       832.92       19.93704
22.5028128516       0.331387261369       850.17       0.76840
23.0028753594       0.359523657848       851.27       0.25509
23.5029378672       0.388636337638       865.63       32.57773
24.003000375       0.418593128048       877.09       35.59247
24.5030628829       0.449244341958       882.69       11.73293
25.0031253907       0.48042396199       894.21       2.63776
25.5031878985       0.511951204711       924.15       10.37561
26.0032504063       0.543632448938       939.87       1.89803
26.5033129141       0.575263501268       945.52       21.36296
27.0033754219       0.606632161389       978.70       4.17326
27.5034379297       0.637521039849       981.58       0.74139
28.0035004376       0.667710572202       988.48       13.26904
28.5035629454       0.696982166215       992.76       1.21032
29.0036254532       0.725121413322       1019.21       38.84646
29.503687961       0.751921292156       1020.69       14.69184
30.0037504688       0.777185290766       1043.70       6.09956
30.5038129766       0.800730375276       1053.79       42.58266
31.0038754844       0.822389736198       1058.45       29.37428
31.5039379922       0.842015249206       1063.84       40.00636
32.0040005001       0.859479594863       1083.99       5.04644
32.5040630079       0.874677991097       1106.41       5.67942
33.0041255157       0.887529502992       1112.59       13.56634
33.5041880235       0.897977906108       1129.93       7.83534
34.0042505313       0.905992091763       1145.00       16.64465
34.5043130391       0.911566014965       1157.15       10.92755
35.0043755469       0.914718197566       1171.55       1.32199
35.5044380548       0.915490810262       1174.83       6.33526
36.0045005626       0.91394836699       1209.33       5.01883
36.5045630704       0.910176073646       1229.88       3.04494
37.0046255782       0.904277879799       1230.60       6.27526
37.504688086       0.896374286893       1237.71       38.59023
38.0047505938       0.886599969408       1251.86       7.52426
38.5048131016       0.875101266523       1260.12       85.48093
39.0048756095       0.862033601131       1272.14       35.93871
39.5049381173       0.847558880842       1279.70       17.44219
40.0050006251       0.831842931956       1287.51       57.68662
40.5050631329       0.815053012779       1296.78       28.68126
41.0051256407       0.797355447177       1324.08       25.36310
41.5051881485       0.77891341337       1332.71       0.88766
42.0052506563       0.759884916838       1337.00       9.89858
42.5053131641       0.740420970166       1338.10       7.16751
43.005375672       0.720663996864       1353.30       9.59566
43.5054381798       0.700746470813       1354.99       10.92377
44.0055006876       0.680789798202       1361.51       9.92237
44.5055631954       0.660903444567       1376.01       4.77772
45.0056257032       0.641184305919       1377.66       27.02312
45.505688211       0.621716319906       1379.32       1.35530
46.0057507188       0.602570310369       1385.51       9.43019
46.5058132267       0.583804056519       1402.74       2.35323
47.0058757345       0.565462576091       1407.53       0.59656
47.5059382423       0.547578610198       1416.14       6.47035
48.0060007501       0.530173296043       1469.26       41.74634
48.5060632579       0.513257012194       1480.50       3.14969
49.0061257657       0.496830379588       1489.61       1.85289
49.5061882735       0.480885399935       1494.14       8.97192
50.0062507813       0.465406711701       1497.63       7.88742
50.5063132892       0.450372942343       1502.78       4.06569
51.006375797       0.435758134147       1504.45       8.65915
51.5064383048       0.421533219848       1510.12       50.06658
52.0065008126       0.407667523317       1511.87       4.62859
52.5065633204       0.394130260114       1546.48       66.50632
53.0066258282       0.38089201263       1608.68       6.46310
53.506688336       0.367926154989       1631.12       21.65759
54.0067508439       0.355210203853       1663.37       97.03581
54.5068133517       0.342727072828       2205.38       18.30907
55.0068758595       0.330466210142       3009.89       32.68088
55.5069383673       0.318424601822       3022.83       7.32051
56.0070008751       0.306607625341       3030.23       33.87604
56.5070633829       0.295029741867       3043.50       10.96361
57.0071258907       0.283715018346       3046.79       55.48991
57.5071883985       0.272697473839       3056.01       11.27077
58.0072509064       0.262021247476       3062.56       9.59452
58.5073134142       0.251740588056       3065.42       24.89031
59.007375922       0.241919667566       3067.40       34.33879
59.5074384298       0.232632222668       3070.12       28.75608
60.0075009376       0.223961029429       3073.01       36.04954
60.5075634454       0.215997217285       3090.19       39.10561
61.0076259532       0.208839428454       3096.07       32.70670
61.5076884611       0.202592828844       3135.68       26.55308
62.0077509689       0.197367976053       3139.36       27.69434
62.5078134767       0.193279549467       3144.11       7.09888
63.0078759845       0.190444946966       3187.57       1.34756
63.5079384923       0.188982752427       3190.61       8.24427
64.0080010001       0.189011078356       3203.39       6.90047
64.5080635079       0.190645788701       3230.24       3.83105
65.0081260158       0.193998608335       3469.55       70.57471
65.5081885236       0.199175127985       3801.11       29.78845
66.0082510314       0.206272716548
66.5083135392       0.215378356766
67.008376047       0.226566425092
67.5084385548       0.239896442073
68.0085010626       0.255410825566
68.5085635704       0.273132685243
69.0086260783       0.293063702935
69.5086885861       0.315182148898
70.0087510939       0.339441088849
70.5088136017       0.365766840115
71.0088761095       0.394057737164
71.5089386173       0.424183266781
72.0090011251       0.455983630996
72.509063633       0.489269791299
73.0091261408       0.523824040676
73.5091886486       0.559401140505
74.0092511564       0.595730047519
74.5093136642       0.63251624213
75.009376172       0.669444653708
75.5094386798       0.706183161466
76.0095011876       0.742386631884
76.5095636955       0.777701435798
77.0096262033       0.811770371047
77.5096887111       0.844237900552
78.0097512189       0.874755601664
78.5098137267       0.902987711104
79.0098762345       0.928616641482
79.5099387423       0.951348340592
80.0100012502       0.970917363851
80.510063758       0.98709153351
81.0101262658       0.999676065652
81.5101887736       1.00851705739
82.0102512814       1.01350424174
82.5103137892       1.01457293596
83.010376297       1.01170512999
83.5104388049       1.00492968468
84.0105013127       0.994321633089
84.5105638205       0.980000602898
85.0106263283       0.962128401167
85.5106888361       0.940905825329
86.0107513439       0.91656878425
86.5108138517       0.889383830526
87.0108763595       0.859643219052
87.5109388674       0.827659616947
88.0110013752       0.793760595893
88.511063883       0.75828303974
89.0111263908       0.721567597898
89.5111888986       0.683953308837
90.0112514064       0.645772508276
90.5113139142       0.607346123847
91.0113764221       0.568979442798
91.5114389299       0.530958422207
92.0115014377       0.493546592967
92.5115639455       0.456982590152
93.0116264533       0.421478323889
93.5116889611       0.387217787214
94.0117514689       0.354356481137
94.5118139767       0.323021422629
95.0118764846       0.293311688987
95.5119389924       0.265299442111
96.0120015002       0.239031368904
96.512064008       0.214530469234
97.0121265158       0.191798120643
97.5121890236       0.170816349052
98.0122515314       0.151550236953
98.5123140393       0.133950404559
99.0123765471       0.117955504986
99.5124390549       0.103494681168
100.012501563       0.0904899397434
100.512564071       0.0788584050576
101.012626578       0.0685144245014
101.512689086       0.0593715042675
102.012751594       0.0513440620588
102.512814102       0.0443489900656
103.01287661       0.0383070274971
103.512939117       0.0331439469766
104.013001625       0.0287915631225
104.513064133       0.0251885745984
105.013126641       0.0222812528384
105.513189149       0.0200239915881
106.013251656       0.0183797314043
106.513314164       0.0173202724466
107.013376672       0.0168264873711
107.51343918       0.0168884440418
108.013501688       0.0175054452529
108.513564196       0.0186859898455
109.013626703       0.0204476566685
109.513689211       0.0228169099179
110.013751719       0.0258288216473
110.513814227       0.0295267048149
111.013876735       0.0339616482532
111.513939242       0.0391919435457
112.01400175       0.0452823930719
112.514064258       0.0523034885384
113.014126766       0.0603304502117
113.514189274       0.0694421188649
114.014251781       0.0797196951537
114.514314289       0.0912453247394
115.014376797       0.104100531932
115.514439305       0.118364509839
116.014501813       0.134112280875
116.514564321       0.151412747808
117.014626828       0.170326662155
117.514689336       0.190904543394
118.014751844       0.21318458891
118.514814352       0.23719062054
119.01487686       0.262930118737
119.514939367       0.290392399436
120.015001875       0.31954699136
120.515064383       0.350342272549
121.015126891       0.382704424031
121.515189399       0.416536755639
122.015251906       0.451719453955
122.515314414       0.488109795025
123.015376922       0.525542855142
123.51543943       0.563832741531
124.015501938       0.602774351578
124.515564446       0.64214565461
125.015626953       0.681710474552
125.515689461       0.721221735545
126.015751969       0.760425116424
126.515814477       0.799063044307
127.015876985       0.83687894315
127.515939492       0.87362164052
128.016002       0.909049825671
128.516064508       0.942936444685
129.016127016       0.97507291457
129.516189524       1.00527303793
130.016252032       1.03337650348
130.516314539       1.05925186535
131.016377047       1.08279890547
131.516439555       1.10395029859
132.016502063       1.1226725178
132.516564571       1.13896593925
133.016627078       1.15286412835
133.516689586       1.16443231349
134.016752094       1.17376507879
134.516814602       1.1809833313
135.01687711       1.18623062162
135.516939617       1.18966891755
136.017002125       1.19147394881
136.517064633       1.19183025491
137.017127141       1.19092607889
137.517189649       1.1889482549
138.017252157       1.18607723887
138.517314664       1.18248242682
139.017377172       1.17831789698
139.51743968       1.1737186981
140.017502188       1.16879778894
140.517564696       1.16364371311
141.017627203       1.15831906961
141.517689711       1.15285981415
142.017752219       1.14727539961
142.517814727       1.1415497377
143.017877235       1.13564293808
143.517939742       1.12949375725
144.01800225       1.12302266832
144.518064758       1.1161354444
145.018127266       1.10872713405
145.518189774       1.10068629732
146.018252282       1.09189936507
146.518314789       1.08225498326
147.018377297       1.07164820771
147.518439805       1.0599844223
148.018502313       1.04718286565
148.518564821       1.03317966665
149.018627328       1.01793030692
149.518689836       1.00141144917
150.018752344       0.983622091675
150.518814852       0.964584031639
151.01887736       0.944341642574
151.518939867       0.922960992102
152.019002375       0.900528346548
152.519064883       0.8771481264
153.019127391       0.852940391779
153.519189899       0.828037949011
154.019252407       0.802583178011
154.519314914       0.776724685235
155.019377422       0.750613888455
155.51943993       0.724401637574
156.019502438       0.698234970455
156.519564946       0.672254094405
157.019627453       0.646589673182
157.519689961       0.621360486357
158.019752469       0.596671513412
158.519814977       0.572612479331
159.019877485       0.549256882503
159.519939992       0.526661509834
160.0200025       0.504866428797
160.520065008       0.483895432027
161.020127516       0.463756897652
161.520190024       0.444445017968
162.020252532       0.425941340784
162.520315039       0.408216561847
163.020377547       0.391232503367
163.520440055       0.374944212776
164.020502563       0.359302117371
164.520565071       0.344254174336
165.020627578       0.329747961435
165.520690086       0.315732661248
166.020752594       0.30216090082
166.520815102       0.288990418537
167.02087761       0.27618554074
167.520940118       0.263718461412
168.021002625       0.251570329031
168.521065133       0.239732154883
169.021127641       0.228205566499
169.521190149       0.217003438041
170.021252657       0.206150436276
170.521315164       0.195683525858
171.021377672       0.185652480944
171.52144018       0.176120451532
172.021502688       0.167164632193
172.521565196       0.158877078082
173.021627703       0.151365708275
173.521690211       0.144755529478
174.021752719       0.139190104251
174.521815227       0.134833277008
175.021877735       0.131871158408
175.521940243       0.130514354501
176.02200275       0.131000411331
176.522065258       0.133596428859
177.022127766       0.138601780436
177.522190274       0.146350855905
178.022252782       0.157215728251
178.522315289       0.17160862603
179.022377797       0.189984077177
179.522440305       0.212840574872
180.022502813       0.240721603707
180.522565321       0.274215855107
181.022627828       0.313956455776
181.522690336       0.360619032599
182.022752844       0.414918442701
182.522815352       0.477604009122
183.02287786       0.549453121294
183.522940368       0.631263085741
184.023002875       0.723841146502
184.523065383       0.82799263656
185.023127891       0.94450727092
185.523190399       1.07414364818
186.023252907       1.2176120895
186.523315414       1.37555601053
187.023377922       1.54853209107
187.52344043       1.73698957717
188.023502938       1.94124911864
188.523565446       2.1614816082
189.023627953       2.39768754503
189.523690461       2.64967749119
190.023752969       2.91705422223
190.523815477       3.19919719033
191.023877985       3.49524991734
191.523940493       3.80411091374
192.024003       4.12442867787
192.524065508       4.4546012655
193.024128016       4.79278083497
193.524190524       5.13688346773
194.024253032       5.48460444074
194.524315539       5.83343898883
195.024378047       6.18070844547
195.524440555       6.52359149405
196.024503063       6.85916010366
196.524565571       7.18441956947
197.024628079       7.49635193298
197.524690586       7.79196192834
198.024753094       8.06832449182
198.524815602       8.3226327881
199.02487811       8.55224565249
199.524940618       8.75473332623
200.025003125       8.92792037416
200.525065633       9.06992472049
201.025128141       9.17919181954
201.525190649       9.25452309087
202.025253157       9.29509788959
202.525315664       9.30048844814
203.025378172       9.27066741017
203.52544068       9.20600777364
204.025503188       9.1072752628
204.525565696       8.97561335005
205.025628204       8.81252134185
205.525690711       8.61982612158
206.025753219       8.39964830049
206.525815727       8.15436366092
207.025878235       7.88656087914
207.525940743       7.59899658647
208.02600325       7.29454886514
208.526065758       6.9761702785
209.026128266       6.64684150654
209.526190774       6.30952659768
210.026253282       5.96713076068
210.526315789       5.62246151083
211.026378297       5.27819385542
211.526440805       4.9368400625
212.026503313       4.60072440717
212.526565821       4.27196313802
213.026628329       3.95244975726
213.526690836       3.64384556652
214.026753344       3.34757529992
214.526815852       3.06482755049
215.02687836       2.79655959809
215.526940868       2.54350616755
216.027003375       2.30619158656
216.527065883       2.08494477392
217.027128391       1.87991646834
217.527190899       1.69109810697
218.027253407       1.51834177693
218.527315914       1.36138069258
219.027378422       1.21984969166
219.52744093       1.0933052937
220.027503438       0.981244920878
220.527565946       0.883124942299
221.027628454       0.798377265784
221.527690961       0.726424263654
222.027753469       0.666691879808
222.527815977       0.618620822432
223.027878485       0.5816757992
223.527940993       0.555352798836
224.0280035       0.539184463923
224.528066008       0.532743634715
225.028128516       0.535645172325
225.528191024       0.547546192457
226.028253532       0.568144858005
226.52831604       0.597177891144
227.028378547       0.634416973371
227.528441055       0.679664206179
228.028503563       0.73274680622
228.528566071       0.793511207678
229.028628579       0.861816741738
229.528691086       0.937529059081
230.028753594       1.02051345679
230.528816102       1.11062826631
231.02887861       1.2077184547
231.528941118       1.31160958702
232.029003625       1.42210229466
232.529066133       1.53896739114
233.029128641       1.66194177511
233.529191149       1.79072525818
