#  x                 y             frequency           intensity
0.0       0.0102224784453       25.75       1.81662
0.500062507813       0.0124763900059       46.37       6.44483
1.00012501563       0.0151678916475       66.07       2.31157
1.50018752344       0.0183681367482       70.35       1.36074
2.00025003125       0.0221568842213       177.83       10.89953
2.50031253907       0.0266229436474       188.02       0.19805
3.00037504688       0.0318645197823       203.26       28.06078
3.50043755469       0.037989427091       274.27       6.59196
4.00050006251       0.0451151429379       304.34       19.92527
4.50056257032       0.0533686667205       340.14       96.88171
5.00062507813       0.0628861517658       363.58       3.37294
5.50068758595       0.0738122773977       393.69       16.08390
6.00075009376       0.0862993304239       422.51       1.17400
6.50081260158       0.100505968539       432.51       6.33680
7.00087510939       0.116595642944       484.06       58.88761
7.5009376172       0.134734663919       499.94       23.45894
8.00100012502       0.155089901255       507.94       8.29806
8.50106263283       0.177826121226       554.25       28.26311
9.00112514064       0.203102973245       659.22       1.31833
9.50118764846       0.231071652129       670.03       15.35835
10.0012501563       0.261871275938       705.09       6.60789
10.5013126641       0.295625034134       742.18       1.71915
11.0013751719       0.332436176071       795.13       14.53802
11.5014376797       0.372383924907       816.70       9.18510
12.0015001875       0.415519416507       838.15       41.50838
12.5015626953       0.461861776015       852.49       17.41211
13.0016252032       0.511394455975       872.86       65.09067
13.501687711       0.564061968475       881.92       0.55864
14.0017502188       0.619767149037       928.81       35.73509
14.5018127266       0.678369091536       947.87       0.87262
15.0018752344       0.739681890446       959.21       18.83652
15.5019377422       0.803474319137       991.39       30.70635
16.00200025       0.869470560236       1036.12       0.37894
16.5020627578       0.937352086319       1117.74       10.97161
17.0021252657       1.00676076637       1126.54       39.35817
17.5021877735       1.0773032459       1149.83       19.37543
18.0022502813       1.14855661676       1159.55       9.37191
18.5023127891       1.22007535734       1191.56       181.28256
19.0023752969       1.29139948544       1200.29       6.42986
19.5024378047       1.36206382661       1235.29       1.73251
20.0025003125       1.43160825978       1263.20       102.70058
20.5025628204       1.49958876265       1287.40       101.17099
21.0026253282       1.56558904125       1295.31       138.05184
21.502687836       1.62923249376       1307.76       146.19187
22.0027503438       1.69019422855       1350.76       7.47903
22.5028128516       1.74821283274       1361.71       0.22378
23.0028753594       1.80310156986       1367.26       22.55858
23.5029378672       1.85475867622       1421.86       2.39129
24.003000375       1.90317642445       1475.02       19.91989
24.5030628829       1.9484486309       1489.54       7.03418
25.0031253907       1.99077630103       1551.63       105.98721
25.5031878985       2.03047113339       1635.47       15.03434
26.0032504063       2.06795663862       1658.67       45.44269
26.5033129141       2.10376667382       1671.20       32.36759
27.0033754219       2.13854124486       1839.01       280.36578
27.5034379297       2.17301948739       3024.46       9.82726
28.0035004376       2.20802980212       3037.74       26.19288
28.5035629454       2.24447718806       3074.83       16.09043
29.0036254532       2.28332788922       3152.15       33.28962
29.503687961       2.32559154249       3153.73       0.69508
30.0037504688       2.37230108694       3195.46       6.70010
30.5038129766       2.42449076452       3201.83       2.67016
31.0038754844       2.48317260798       3477.06       5.51825
31.5039379922       2.54931187206       3552.38       7.18796
32.0040005001       2.62380191659       3768.70       31.94433
32.5040630079       2.7074390931       3799.31       65.63493
33.0041255157       2.80089821908
33.5041880235       2.90470924374
34.0042505313       3.0192357155
34.5043130391       3.14465565249
35.0043755469       3.28094539344
35.5044380548       3.42786696607
36.0045005626       3.5849594535
36.5045630704       3.75153476768
37.0046255782       3.92667815162
37.504688086       4.10925363218
38.0047505938       4.29791453343
38.5048131016       4.49111903948
39.0048756095       4.68715066884
39.5049381173       4.88414339215
40.0050006251       5.08011099586
40.5050631329       5.27298016994
41.0051256407       5.46062668147
41.5051881485       5.64091389295
42.0052506563       5.81173279671
42.5053131641       5.97104267025
43.005375672       6.11691141246
43.5054381798       6.24755460173
44.0055006876       6.36137232406
44.5055631954       6.45698285361
45.0056257032       6.53325232981
45.505688211       6.58931966192
46.0057507188       6.62461600257
46.5058132267       6.63887826291
47.0058757345       6.63215628952
47.5059382423       6.60481348315
48.0060007501       6.55752080651
48.5060632579       6.49124429741
49.0061257657       6.40722636962
49.5061882735       6.30696134151
50.0062507813       6.1921657768
50.5063132892       6.06474434916
51.006375797       5.92675204785
51.5064383048       5.78035362421
52.0065008126       5.62778123426
52.5065633204       5.47129126243
53.0066258282       5.31312131313
53.506688336       5.15544833283
54.0067508439       5.00034877653
54.5068133517       4.84976166083
55.0068758595       4.70545525553
55.5069383673       4.56899805832
56.0070008751       4.44173457794
56.5070633829       4.32476632312
57.0071258907       4.21893826172
57.5071883985       4.12483088046
58.0072509064       4.04275784428
58.5073134142       3.97276912823
59.007375922       3.91465937729
59.5074384298       3.86798114295
60.0075009376       3.8320625511
60.5075634454       3.80602887623
61.0076259532       3.78882743212
61.5076884611       3.77925514081
62.0077509689       3.77598810874
62.5078134767       3.77761252249
63.0078759845       3.78265617544
63.5079384923       3.78961995023
64.0080010001       3.7970086097
64.5080635079       3.80336028898
65.0081260158       3.80727413328
65.5081885236       3.80743558709
66.0082510314       3.80263891056
66.5083135392       3.79180657454
67.008376047       3.77400526708
67.5084385548       3.7484583275
68.0085010626       3.71455450899
68.5085635704       3.6718530541
69.0086260783       3.62008514862
69.5086885861       3.55915189525
70.0087510939       3.48911901894
70.5088136017       3.41020857795
71.0088761095       3.32278800829
71.5089386173       3.22735687288
72.0090011251       3.12453171954
72.509063633       3.01502947366
73.0091261408       2.89964980202
73.5091886486       2.7792568834
74.0092511564       2.65476101032
74.5093136642       2.52710042508
75.009376172       2.3972237632
75.5094386798       2.26607343945
76.0095011876       2.13457026794
76.5095636955       2.00359955893
77.0096262033       1.87399888346
77.5096887111       1.74654764369
78.0097512189       1.62195853388
78.5098137267       1.50087092563
79.0098762345       1.38384616259
79.5099387423       1.27136470555
80.0100012502       1.16382502987
80.510063758       1.06154414374
81.0101262658       0.96475956882
81.5101887736       0.87363260465
82.0102512814       0.788252684005
82.5103137892       0.708642619443
83.010376297       0.634764539644
83.5104388049       0.566526318444
84.0105013127       0.503788308384
84.5105638205       0.446370203662
85.0106263283       0.394057873706
85.5106888361       0.346610027295
86.0107513439       0.303764587527
86.5108138517       0.265244679076
87.0108763595       0.230764150466
87.5109388674       0.200032574794
88.0110013752       0.172759691962
88.511063883       0.148659273583
89.0111263908       0.127452407941
89.5111888986       0.108870216497
90.0112514064       0.0926560252954
90.5113139142       0.078567024232
91.0113764221       0.0663754544474
91.5114389299       0.0558693693332
92.0115014377       0.0468530178295
92.5115639455       0.0391469001256
93.0116264533       0.0325875457549
93.5116889611       0.0270270626373
94.0117514689       0.0223325031388
94.5118139767       0.0183850899096
95.0118764846       0.015079340378
95.5119389924       0.012322124521
96.0120015002       0.010031686089
96.512064008       0.00813665300856
97.0121265158       0.00657505833783
97.5121890236       0.00529338903066
98.0122515314       0.00424567594412
98.5123140393       0.0033926350651
99.0123765471       0.00270086686439
99.5124390549       0.00214211802807
100.012501563       0.00169260756453
100.512564071       0.00133241742683
101.012626578       0.00104494630062
101.512689086       0.000816424056272
102.012751594       0.000635483514616
102.512814102       0.000492785590498
103.01287661       0.000380693518717
103.512939117       0.000292991695195
104.013001625       0.000224644646602
104.513064133       0.00017159174144
105.013126641       0.000130573445405
105.513189149       9.89851779707e-05
106.013251656       7.47551235662e-05
106.513314164       5.62426712803e-05
107.013376672       4.21544868033e-05
107.51343918       3.14755477338e-05
108.013501688       2.34127896378e-05
108.513564196       1.73493090045e-05
109.013626703       1.28073462773e-05
109.513689211       9.41852494618e-06
110.013751719       6.90005014112e-06
110.513814227       5.03577224876e-06
111.013876735       3.66119854557e-06
111.513939242       2.65169006029e-06
112.01400175       1.91321357182e-06
112.514064258       1.37513177065e-06
113.014126766       9.84610205703e-07
113.514189274       7.02299753823e-07
114.014251781       4.99019957671e-07
114.514314289       3.53223538072e-07
115.014376797       2.49067401859e-07
115.514439305       1.74952075454e-07
116.014501813       1.2242106249e-07
116.514564321       8.53353455624e-08
117.014626828       5.92571599593e-08
117.514689336       4.09921422246e-08
118.014751844       2.8250743407e-08
118.514814352       1.93990186177e-08
119.01487686       1.32760772573e-08
119.514939367       9.06102608526e-09
120.015001875       6.17650590293e-09
120.515064383       4.21919185491e-09
121.015126891       2.91012239478e-09
121.515189399       2.05962329409e-09
122.015251906       1.54304516057e-09
122.515314414       1.28465185669e-09
123.015376922       1.24787732714e-09
123.51543943       1.43088818767e-09
124.015501938       1.86701706784e-09
124.515564446       2.6302297739e-09
125.015626953       3.84642000364e-09
125.515689461       5.71205542947e-09
126.015751969       8.52260559593e-09
126.515814477       1.27143591218e-08
127.015876985       1.89248033907e-08
127.515939492       2.80788460644e-08
128.016002       4.1511001002e-08
128.516064508       6.11374967974e-08
129.016127016       8.96974250189e-08
129.516189524       1.3108895444e-07
130.016252032       1.90835845399e-07
130.516314539       2.76731704432e-07
131.016377047       3.99725509707e-07
131.516439555       5.75133027025e-07
132.016502063       8.24286214869e-07
132.516564571       1.17676830609e-06
133.016627078       1.67342806484e-06
133.516689586       2.37042531695e-06
134.016752094       3.34463433139e-06
134.516814602       4.70082567205e-06
135.01687711       6.58116508459e-06
135.516939617       9.1777148863e-06
136.017002125       1.27488049965e-05
136.517064633       1.76403637579e-05
137.017127141       2.43135703791e-05
137.517189649       3.33805191715e-05
138.017252157       4.56499792976e-05
138.517314664       6.21858013381e-05
139.017377172       8.43810724616e-05
139.51743968       0.000114051763724
140.017502188       0.000153554353362
140.517564696       0.000205932754399
141.017627203       0.000275100826233
141.517689711       0.000366067807067
142.017752219       0.000485215160811
142.517814727       0.000640634575552
143.017877235       0.000842538159751
143.517939742       0.00110375322561
144.01800225       0.00144031538382
144.518064758       0.00187217494323
145.018127266       0.00242403274165
145.518189774       0.00312632244129
146.018252282       0.00401635689973
146.518314789       0.00513965635149
147.018377297       0.00655147566791
147.518439805       0.00831854674985
148.018502313       0.0105210499836
148.518564821       0.0132548254846
149.018627328       0.016633830392
149.518689836       0.0207928425979
150.018752344       0.0258904038532
150.518814852       0.0321119860631
151.01887736       0.0396733537164
151.518939867       0.0488240827394
152.019002375       0.05985118172
152.519064883       0.0730827455272
153.019127391       0.0888915541277
153.519189899       0.107698511224
154.019252407       0.129975798713
154.519314914       0.156249604493
155.019377422       0.187102263597
155.51943993       0.223173636863
156.019502438       0.265161538342
156.519564946       0.313821013499
157.019627453       0.369962265999
157.519689961       0.434447032764
158.019752469       0.508183215952
158.519814977       0.592117597692
159.019877485       0.68722648951
159.519939992       0.794504204066
160.0200025       0.91494928235
160.520065008       1.04954846484
161.020127516       1.19925845971
161.520190024       1.36498563423
162.020252532       1.54756383534
162.520315039       1.74773063033
163.020377547       1.96610234586
163.520440055       2.2031483708
164.020502563       2.45916527173
164.520565071       2.7342513463
165.020627578       3.02828230534
165.520690086       3.34088882547
166.020752594       3.67143674707
166.520815102       4.01901070426
167.02087761       4.38240196105
167.520940118       4.76010119004
168.021002625       5.15029686449
168.521065133       5.5508798421
169.021127641       5.95945460007
169.521190149       6.37335743741
170.021252657       6.78968179664
170.521315164       7.20531067489
171.021377672       7.61695590218
171.52144018       8.02120386529
172.021502688       8.41456705824
172.521565196       8.79354064995
173.021627703       9.15466308491
173.521690211       9.49457957826
174.021752719       9.81010724054
174.521815227       10.0983004737
175.021877735       10.3565152223
175.521940243       10.5824706467
176.02200275       10.7743068064
176.522065258       10.9306370048
177.022127766       11.0505935472
177.522190274       11.1338657957
178.022252782       11.1807295714
178.522315289       11.1920671379
179.022377797       11.1693772028
179.522440305       11.1147745882
180.022502813       11.0309794285
180.522565321       10.921295966
181.022627828       10.7895812061
181.522690336       10.6402038707
182.022752844       10.4779942458
182.522815352       10.3081856466
183.02287786       10.136348331
183.522940368       9.96831676844
184.023002875       9.81011123124
184.523065383       9.66785470761
185.023127891       9.54768615779
185.523190399       9.4556711433
186.023252907       9.39771086181
186.523315414       9.37945062268
187.023377922       9.40618880346
187.52344043       9.48278733929
188.023502938       9.61358481861
188.523565446       9.80231328769
189.023627953       10.0520199047
189.523690461       10.3649946262
190.023752969       10.7427051524
190.523815477       11.1857403908
191.023877985       11.6937637263
191.523940493       12.2654773805
192.024003       12.8985991196
192.524065508       13.589852502
193.024128016       14.3349717476
193.524190524       15.1287221512
194.024253032       15.9649367497
194.524315539       16.8365696895
195.024378047       17.7357664234
195.524440555       18.653950505
196.024503063       19.5819263525
196.524565571       20.5099969252
197.024628079       21.4280948246
197.524690586       22.3259248932
198.024753094       23.1931159748
198.524815602       24.0193791209
199.02487811       24.7946692113
199.524940618       25.5093467018
200.025003125       26.1543360518
200.525065633       26.7212773145
201.025128141       27.2026674074
201.525190649       27.5919877286
202.025253157       27.8838150328
202.525315664       28.0739128388
203.025378172       28.159301089
203.52544068       28.1383023101
204.025503188       28.0105631181
204.525565696       27.7770505475
205.025628204       27.4400233433
205.525690711       27.0029790128
206.025753219       26.4705780685
206.525815727       25.8485474809
207.025878235       25.1435658835
207.525940743       24.3631335092
208.02600325       23.5154301783
208.526065758       22.6091648937
209.026128266       21.6534207141
209.526190774       20.6574985848
210.026253282       19.6307636996
210.526315789       18.5824977529
211.026378297       17.5217601452
211.526440805       16.4572608174
212.026503313       15.3972469508
212.526565821       14.3494052798
213.026628329       13.3207812541
213.526690836       12.3177157673
214.026753344       11.3457996634
214.526815852       10.409845753
215.02687836       9.513877635
215.526940868       8.66113423545
216.027003375       7.85408865582
216.527065883       7.09447966908
217.027128391       6.38335402118
217.527190899       5.72111758424
218.027253407       5.10759336455
218.527315914       4.54208438888
219.027378422       4.02343956842
219.52744093       3.55012076408
220.027503438       3.12026943969
220.527565946       2.73177148176
221.027628454       2.38231897647
221.527690961       2.0694679566
222.027753469       1.79069135532
222.527815977       1.54342662209
223.027878485       1.32511766255
223.527940993       1.13325095292
224.0280035       0.965385847857
224.528066008       0.819179244589
225.028128516       0.692404885672
225.528191024       0.582967676216
226.028253532       0.488913460854
226.52831604       0.40843475147
227.028378547       0.339872921574
227.528441055       0.281717389301
228.028503563       0.232602301287
228.528566071       0.191301206941
229.028628579       0.156720179851
229.528691086       0.127889802888
230.028753594       0.103956388632
230.528816102       0.0841727593193
231.02887861       0.0678888624533
231.528941118       0.0545424513188
232.029003625       0.0436500150494
232.529066133       0.0347981016656
233.029128641       0.0276351402754
233.529191149       0.0218638358134
234.029253657       0.0172341814677
234.529316165       0.013537110282
235.029378672       0.0105987881583
235.52944118       0.00827553533246
236.029503688       0.00644935199017
236.529566196       0.0050240156151
237.029628704       0.00392171247705
237.529691211       0.00308016293316
238.029753719       0.00245019950117
238.529816227       0.00199375756677
239.029878735       0.00168224073815
239.529941243       0.00149522592506
240.03000375       0.00141947690359
240.530066258       0.001448239173
241.030128766       0.00158079309345
241.530191274       0.00182224641994
242.030253782       0.00218355124957
242.53031629       0.0026817339282
243.030378797       0.00334032948686
243.530441305       0.0041900145766
244.030503813       0.00526943453234
244.530566321       0.00662622101619
245.030628829       0.00831819657126
245.530691336       0.010414761268
246.030753844       0.0129984543674
246.530816352       0.016166680492
247.03087886       0.0200335851483
247.530941368       0.0247320585547
248.031003875       0.0304158396325
248.531066383       0.0372616837601
249.031128891       0.0454715486016
249.531191399       0.0552747421723
250.031253907       0.0669299665414
250.531316415       0.0807271795216
251.031378922       0.0969891857476
251.53144143       0.116072858185
252.031503938       0.138369881871
252.531566446       0.164306904178
253.031628954       0.194344970808
253.531691461       0.228978124635
254.031753969       0.268731046279
254.531816477       0.314155621384
255.031878985       0.365826330688
255.531941493       0.424334375577
256.032004001       0.490280474194
256.532066508       0.56426629152
257.032129016       0.646884501097
257.532191524       0.738707515795
