#  x                 y             frequency           intensity
0.0       0.0019946171466       28.92       1.37264
0.500062507813       0.00249546291061       45.24       1.28829
1.00012501563       0.00310989978095       61.64       0.79333
1.50018752344       0.00386051684023       67.71       0.98656
2.00025003125       0.00477362592103       173.37       2.21640
2.50031253907       0.00587970169392       185.47       2.71441
3.00037504688       0.00721383654879       201.24       24.60455
3.50043755469       0.00881620199211       273.95       0.59898
4.00050006251       0.010732506169       303.47       10.29527
4.50056257032       0.0130144348806       336.07       98.66430
5.00062507813       0.015720061164       359.56       2.39973
5.50068758595       0.0189142062051       392.34       8.71637
6.00075009376       0.0226687321654       422.05       1.53418
6.50081260158       0.0270627455179       431.94       9.61204
7.00087510939       0.0321826878351       488.41       14.18636
7.5009376172       0.038122289786       504.47       10.59237
8.00100012502       0.0449823635123       554.35       16.61028
8.50106263283       0.0528704087181       599.56       116.01524
9.00112514064       0.0619000088514       655.54       8.96751
9.50118764846       0.0721899958163       660.44       0.94650
10.0012501563       0.0838633648254       718.94       11.53024
10.5013126641       0.0970459253749       747.79       4.55146
11.0013751719       0.111864679932       793.92       36.96629
11.5014376797       0.128445928767       813.67       12.53588
12.0015001875       0.146913107376       837.27       64.95947
12.5015626953       0.167384372015       847.70       47.77270
13.0016252032       0.189969958841       869.41       55.72466
13.501687711       0.214769352694       886.89       0.95754
14.0017502188       0.241868312526       926.05       15.51495
14.5018127266       0.271335811272       946.68       4.76737
15.0018752344       0.303220958414       960.82       6.47326
15.5019377422       0.337549982855       993.50       15.78521
16.00200025       0.374323361839       1036.66       0.50113
16.5020627578       0.413513187696       1116.44       20.22560
17.0021252657       0.455060867958       1125.19       168.69544
17.5021877735       0.49887525529       1148.41       99.25011
18.0022502813       0.54483130139       1160.98       29.48853
18.5023127891       0.592769323257       1192.06       168.82293
19.0023752969       0.642494960823       1199.77       4.69937
19.5024378047       0.693779891864       1236.19       1.05591
20.0025003125       0.746363353465       1265.94       9.88194
20.5025628204       0.799954499353       1285.93       104.91486
21.0026253282       0.854235599615       1302.49       2.22840
21.502687836       0.908866064219       1340.00       30.95642
22.0027503438       0.963487245128       1357.07       15.55382
22.5028128516       1.01772794449       1358.73       2.24715
23.0028753594       1.07121052935       1367.21       22.35028
23.5029378672       1.12355752772       1420.90       6.75819
24.003000375       1.17439855731       1475.07       19.37946
24.5030628829       1.22337741866       1491.47       6.70152
25.0031253907       1.27015916858       1551.96       104.28402
25.5031878985       1.31443697973       1636.19       16.18860
26.0032504063       1.35593858797       1659.09       43.65963
26.5033129141       1.39443213122       1670.80       30.77284
27.0033754219       1.42973119276       1804.52       312.38320
27.5034379297       1.46169887761       3035.91       17.71260
28.0035004376       1.49025077328       3069.54       8.10267
28.5035629454       1.51535667467       3087.03       14.63182
29.0036254532       1.53704098694       3151.08       21.86384
29.503687961       1.55538175817       3159.40       8.66253
30.0037504688       1.57050833565       3194.19       11.94112
30.5038129766       1.58259768193       3196.15       0.62008
31.0038754844       1.59186943098       3482.31       3.38869
31.5039379922       1.5985798063       3558.18       6.42525
32.0040005001       1.6030145623       3715.55       60.35963
32.5040630079       1.60548114481       3800.19       62.86556
33.0041255157       1.60630029586
33.5041880235       1.60579734958
34.0042505313       1.60429348055
34.5043130391       1.60209717114
35.0043755469       1.59949616113
35.5044380548       1.59675013055
36.0045005626       1.59408434515
36.5045630704       1.59168446533
37.0046255782       1.58969268223
37.504688086       1.58820530324
38.0047505938       1.58727186144
38.5048131016       1.58689577479
39.0048756095       1.58703652914
39.5049381173       1.5876133096
40.0050006251       1.58850995652
40.5050631329       1.58958107884
41.0051256407       1.59065911918
41.5051881485       1.59156213397
42.0052506563       1.59210202841
42.5053131641       1.59209297171
43.005375672       1.5913597128
43.5054381798       1.58974552046
44.0055006876       1.58711948548
44.5055631954       1.58338294382
45.0056257032       1.57847480966
45.505688211       1.57237564326
46.0057507188       1.56511032039
46.5058132267       1.55674921541
47.0058757345       1.54740785798
47.5059382423       1.53724507192
48.0060007501       1.52645965215
48.5060632579       1.51528568068
49.0061257657       1.50398662369
49.5061882735       1.49284838769
50.0062507813       1.48217154234
50.5063132892       1.47226294038
51.006375797       1.46342697995
51.5064383048       1.4559567625
52.0065008126       1.45012539859
52.5065633204       1.44617770629
53.0066258282       1.44432253216
53.506688336       1.44472590319
54.0067508439       1.44750519218
54.5068133517       1.45272444736
55.0068758595       1.46039100348
55.5069383673       1.47045345451
56.0070008751       1.48280103112
56.5070633829       1.49726438828
57.0071258907       1.51361777226
57.5071883985       1.53158250179
58.0072509064       1.55083166711
58.5073134142       1.57099592229
59.007375922       1.59167022304
59.5074384298       1.6124213427
60.0075009376       1.63279598484
60.5075634454       1.6523293016
61.0076259532       1.67055362204
61.5076884611       1.68700719544
62.0077509689       1.70124275879
62.5078134767       1.71283574726
63.0078759845       1.72139197892
63.5079384923       1.72655466131
64.0080010001       1.72801058684
64.5080635079       1.72549540501
65.0081260158       1.71879788321
65.5081885236       1.70776309181
66.0082510314       1.6922944748
66.5083135392       1.67235479215
67.008376047       1.64796594489
67.5084385548       1.61920771743
68.0085010626       1.58621549433
68.5085635704       1.54917702831
69.0086260783       1.50832835484
69.5086885861       1.46394896361
70.0087510939       1.41635634927
70.5088136017       1.3659000734
71.0088761095       1.31295547472
71.5089386173       1.25791716757
72.0090011251       1.20119246737
72.509063633       1.14319487746
73.0091261408       1.08433776492
73.5091886486       1.02502834254
74.0092511564       0.965662062007
74.5093136642       0.906617508922
75.009376172       0.848251874277
75.5094386798       0.790897060152
76.0095011876       0.73485645973
76.5095636955       0.6804024342
77.0096262033       0.627774491884
77.5096887111       0.577178158659
78.0097512189       0.528784513678
78.5098137267       0.482730351041
79.0098762345       0.439118916555
79.5099387423       0.398021159369
80.0100012502       0.359477431148
80.510063758       0.323499560607
81.0101262658       0.290073228638
81.5101887736       0.259160568893
82.0102512814       0.230702920216
82.5103137892       0.204623660729
83.010376297       0.180831058277
83.5104388049       0.159221078072
84.0105013127       0.139680095493
84.5105638205       0.122087469762
85.0106263283       0.106317942283
85.5106888361       0.0922438316456
86.0107513439       0.0797370052709
86.5108138517       0.0686706152951
87.0108763595       0.0589205933077
87.5109388674       0.0503669048779
88.0110013752       0.0428945702899
88.511063883       0.0363944625223
89.0111263908       0.0307638972096
89.5111888986       0.0259070321364
90.0112514064       0.0217350957638
90.5113139142       0.0181664654406
91.0113764221       0.0151266163892
91.5114389299       0.0125479623601
92.0115014377       0.0103696081346
92.5115639455       0.00853703290826
93.0116264533       0.00700172211928
93.5116889611       0.00572076359261
94.0117514689       0.00465642202822
94.5118139767       0.00377570396603
95.0118764846       0.00304992346356
95.5119389924       0.00245427688962
96.0120015002       0.00196743350802
96.512064008       0.00157114693484
97.0121265158       0.00124989112145
97.5121890236       0.000990523257528
98.0122515314       0.000781974907812
98.5123140393       0.000614971791518
99.0123765471       0.00048178187651
99.5124390549       0.000375990880287
100.012501563       0.000292303831754
100.512564071       0.000226371035779
101.012626578       0.000174636579424
101.512689086       0.000134207407644
102.012751594       0.000102740960537
102.512814102       7.834938874e-05
103.01287661       5.95184341131e-05
103.512939117       4.50391671777e-05
104.013001625       3.39509001222e-05
104.513064133       2.54937355139e-05
105.013126641       1.90693588114e-05
105.513189149       1.42088314448e-05
106.013251656       1.0546286135e-05
106.513314164       7.79756394305e-06
107.013376672       5.74296101526e-06
107.51343918       4.21337070776e-06
108.013501688       3.07921302397e-06
108.513564196       2.24163792505e-06
109.013626703       1.62557232645e-06
109.513689211       1.17425303174e-06
110.013751719       8.44950234613e-07
110.513814227       6.05639420779e-07
111.013876735       4.32424464178e-07
111.513939242       3.07552384287e-07
112.01400175       2.17891537118e-07
112.514064258       1.53770823034e-07
113.014126766       1.0809861346e-07
113.514189274       7.5697252661e-08
114.014251781       5.28028258211e-08
114.514314289       3.66909664741e-08
115.014376797       2.53982936452e-08
115.514439305       1.75160393472e-08
116.014501813       1.20379026951e-08
116.514564321       8.24844251322e-09
117.014626828       5.64163987117e-09
117.514689336       3.86182587142e-09
118.014751844       2.661141566e-09
118.514814352       1.86920846628e-09
119.01487686       1.37184660481e-09
119.514939367       1.09656874404e-09
120.015001875       1.00327403804e-09
120.515064383       1.07911969432e-09
121.015126891       1.33701336821e-09
121.515189399       1.81758465403e-09
122.015251906       2.59490064649e-09
122.515314414       3.78662756708e-09
123.015376922       5.56985014592e-09
123.51543943       8.20439103791e-09
124.015501938       1.20662816511e-08
124.515564446       1.76950943324e-08
125.015626953       2.58602427383e-08
125.515689461       3.76532044968e-08
126.015751969       5.46150595149e-08
126.515814477       7.89119469086e-08
127.015876985       1.13575247247e-07
127.515939492       1.6282877344e-07
128.016002       2.32532348085e-07
128.516064508       3.30780280714e-07
129.016127016       4.68704950086e-07
129.516189524       6.61550564881e-07
130.016252032       9.30100961154e-07
130.516314539       1.30256887002e-06
131.016377047       1.81708347278e-06
131.516439555       2.52494942536e-06
132.016502063       3.49489520952e-06
132.516564571       4.81858313903e-06
133.016627078       6.6177192413e-06
133.516689586       9.05318028917e-06
134.016752094       1.23366692889e-05
134.516814602       1.67455215629e-05
135.01687711       2.26414129468e-05
135.516939617       3.04938711055e-05
136.017002125       4.0909661778e-05
136.517064633       5.46693145768e-05
137.017127141       7.27722677421e-05
137.517189649       9.64923469463e-05
138.017252157       0.000127445547494
138.517314664       0.000167672358145
139.017377172       0.000219737142349
139.51743968       0.000286847370753
140.017502188       0.00037299576646
140.517564696       0.000483128667989
141.017627203       0.00062334411697
141.517689711       0.000801123318107
142.017752219       0.0010255991739
142.517814727       0.00130786553909
143.017877235       0.00166133063998
143.517939742       0.00210211772952
144.01800225       0.00264951546706
144.518064758       0.00332647968873
145.018127266       0.0041601871389
145.518189774       0.00518264033674
146.018252282       0.00643132103332
146.518314789       0.00794988765957
147.018377297       0.00978890977288
147.518439805       0.0120066297917
148.018502313       0.0146697392942
148.518564821       0.0178541538963
149.018627328       0.021645767295
149.518689836       0.0261411615501
150.018752344       0.0314482472158
150.518814852       0.0376868036608
151.01887736       0.0449888869983
151.518939867       0.0534990706863
152.019002375       0.0633744822398
152.519064883       0.0747845988439
153.019127391       0.0879107651714
153.519189899       0.102945398595
154.019252407       0.120090850404
154.519314914       0.139557896753
155.019377422       0.161563839929
155.51943993       0.186330209219
156.019502438       0.214080061059
156.519564946       0.24503489021
157.019627453       0.279411177123
157.519689961       0.317416611174
158.019752469       0.359246044624
158.519814977       0.405077247481
159.019877485       0.455066548349
159.519939992       0.509344460204
160.0200025       0.568011402139
160.520065008       0.631133637796
161.020127516       0.698739557827
161.520190024       0.770816436638
162.020252532       0.847307792425
162.520315039       0.928111473727
163.020377547       1.01307858519
163.520440055       1.10201334997
164.020502563       1.19467398658
164.520565071       1.2907746539
165.020627578       1.38998849134
165.520690086       1.4919517513
166.020752594       1.5962689901
166.520815102       1.70251925299
167.02087761       1.81026315865
167.520940118       1.91905076193
168.021002625       2.02843005053
168.521065133       2.13795591352
169.021127641       2.24719940848
169.521190149       2.35575714931
170.021252657       2.46326064065
170.521315164       2.56938539492
171.021377672       2.67385968665
171.52144018       2.77647282244
172.021502688       2.87708283465
172.521565196       2.97562353928
173.021627703       3.07211093257
173.521690211       3.16664893366
174.021752719       3.25943451035
174.521815227       3.35076224845
175.021877735       3.44102844062
175.521940243       3.5307347762
176.02200275       3.62049170621
176.522065258       3.71102153895
177.022127766       3.80316128844
177.522190274       3.89786525267
178.022252782       3.99620724178
178.522315289       4.09938231008
179.022377797       4.20870777321
179.522440305       4.32562321707
180.022502813       4.45168913174
180.522565321       4.58858373771
181.022627828       4.73809751711
181.522690336       4.90212492584
182.022752844       5.0826527471
182.522815352       5.2817445586
183.02287786       5.50152082679
183.522940368       5.74413421574
184.023002875       6.01173980585
184.523065383       6.30646005846
185.023127891       6.63034453485
185.523190399       6.98532457782
186.023252907       7.37316338573
186.523315414       7.79540214585
187.023377922       8.25330313641
187.52344043       8.74779094677
188.023502938       9.27939319021
188.523565446       9.84818228445
189.023627953       10.4537200393
189.523690461       11.0950069084
190.023752969       11.7704378251
190.523815477       12.4777665386
191.023877985       13.2140802998
191.523940493       13.975786598
192.024003       14.7586134382
192.524065508       15.5576243601
193.024128016       16.3672490483
193.524190524       17.1813299812
194.024253032       17.9931851099
194.524315539       18.7956860827
195.024378047       19.581351036
195.524440555       20.3424504813
196.024503063       21.0711243525
196.524565571       21.7595078514
197.024628079       22.3998633595
197.524690586       22.9847153932
198.024753094       23.5069853717
198.524815602       23.9601228606
199.02487811       24.3382299507
199.524940618       24.6361755389
200.025003125       24.8496964898
200.525065633       24.9754829699
201.025128141       25.0112456542
201.525190649       24.9557629845
202.025253157       24.8089072097
202.525315664       24.571648521
203.025378172       24.246037209
203.52544068       23.8351643763
204.025503188       23.3431023321
204.525565696       22.7748263389
205.025628204       22.13611987
205.525690711       21.4334659473
206.025753219       20.6739274492
206.525815727       19.8650195037
207.025878235       19.0145771989
207.525940743       18.1306218647
208.02600325       17.2212290882
208.526065758       16.2944014532
209.026128266       15.3579487275
209.526190774       14.4193778908
210.026253282       13.4857950038
210.526315789       12.5638204938
211.026378297       11.6595189762
211.526440805       10.7783442765
212.026503313       9.92509986692
212.526565821       9.10391451004
213.026628329       8.31823251417
213.526690836       7.57081766674
214.026753344       6.86376962748
214.526815852       6.1985513396
215.02687836       5.5760258557
215.526940868       4.99650087621
216.027003375       4.45977925934
216.527065883       3.96521377775
217.027128391       3.51176446365
217.527190899       3.09805699174
218.027253407       2.72244069217
218.527315914       2.38304495347
219.027378422       2.0778329608
219.52744093       1.80465190907
220.027503438       1.56127902664
220.527565946       1.34546293625
221.027628454       1.15496005984
221.527690961       0.987565939668
222.027753469       0.841141494087
222.527815977       0.713634352653
223.027878485       0.603095518849
223.527940993       0.507691690416
224.0280035       0.425713627331
224.528066008       0.355580997256
225.028128516       0.295844149504
225.528191024       0.245183273616
226.028253532       0.202405389791
226.52831604       0.166439598263
227.028378547       0.136330985836
227.528441055       0.111233552459
228.028503563       0.0904024813508
228.528566071       0.0731860345433
229.028628579       0.0590173137068
229.528691086       0.0474060850343
230.028753594       0.0379308279633
230.528816102       0.0302311314562
231.02887861       0.0240005289878
231.528941118       0.0189798346732
232.029003625       0.0149510182337
232.529066133       0.0117316357292
233.029128641       0.00916981601907
233.529191149       0.00713978949889
234.029253657       0.00553793546031
234.529316165       0.004279317084
235.029378672       0.00329466819775
235.52944118       0.0025277931369
236.029503688       0.00193333995327
236.529566196       0.0014749074866
237.029628704       0.00112344812142
237.529691211       0.000855930126416
238.029753719       0.000654226070291
238.529816227       0.000504196728634
239.029878735       0.000394942974796
239.529941243       0.000318201253505
240.03000375       0.000267861268504
240.530066258       0.000239587400128
241.030128766       0.000230528052975
241.530191274       0.000239099583121
242.030253782       0.000264833648362
242.53031629       0.000308278754364
243.030378797       0.000370948432663
243.530441305       0.000455309887354
244.030503813       0.000564808093159
244.530566321       0.000703921228109
245.030628829       0.000878243989443
245.530691336       0.0010945957826
246.030753844       0.00136115100119
246.530816352       0.00168758864194
247.03087886       0.00208525833503
247.530941368       0.00256735952978
248.031003875       0.00314913007468
248.531066383       0.00384803978673
249.031128891       0.00468398384093
249.531191399       0.00567946995372
250.031253907       0.00685979241552
250.531316415       0.00825318508787
251.031378922       0.00989094456166
251.53144143       0.0118075138281
252.031503938       0.0140405160967
252.531566446       0.016630727867
253.031628954       0.0196219800839
253.531691461       0.0230609762478
254.031753969       0.0269970167647
254.531816477       0.0314816196763
255.031878985       0.0365680292395
255.531941493       0.042310605682
