#  x                 y             frequency           intensity
0.0       0.00279298889816       30.09       3.29590
0.500062507813       0.00352642999319       43.56       1.36697
1.00012501563       0.00443512017084       64.00       4.09688
1.50018752344       0.00555622328809       97.58       3.32488
2.00025003125       0.00693359197007       155.79       1.35324
2.50031253907       0.00861869064993       240.66       2.56663
3.00037504688       0.0106715836388       282.61       13.79125
3.50043755469       0.0131619786136       318.53       1.61212
4.00050006251       0.0161703119014       324.04       6.56119
4.50056257032       0.01978885744       328.66       20.29737
5.00062507813       0.024122836358       340.92       91.67519
5.50068758595       0.0292914988484       397.01       6.44685
6.00075009376       0.0354291445161       420.55       2.11435
6.50081260158       0.0426860418486       430.69       7.70809
7.00087510939       0.0512292020802       491.91       2.98632
7.5009376172       0.0612429577418       533.61       22.51466
8.00100012502       0.072929291894       562.26       9.74222
8.50106263283       0.086507860724       648.66       16.15403
9.00112514064       0.10221565019       661.07       3.54575
9.50118764846       0.120306207039       726.34       0.48577
10.0012501563       0.141048386159       749.00       5.38251
10.5013126641       0.164724560124       788.84       12.63198
11.0013751719       0.191628243264       802.51       9.47994
11.5014376797       0.222061091832       815.07       2.92378
12.0015001875       0.256329253932       823.27       66.56545
12.5015626953       0.294739057924       844.13       52.54752
13.0016252032       0.337592045854       866.97       43.80607
13.501687711       0.385179378898       892.60       71.36570
14.0017502188       0.437775664438       931.93       2.91127
14.5018127266       0.495632278718       946.47       0.23194
15.0018752344       0.558970284316       963.90       9.22258
15.5019377422       0.627973067181       993.89       37.88897
16.00200025       0.702778842639       1036.00       0.03092
16.5020627578       0.783473202711       1080.14       8.89307
17.0021252657       0.87008189695       1121.17       18.13005
17.5021877735       0.96256405496       1152.30       26.41716
18.0022502813       1.0608060694       1190.18       210.63059
18.5023127891       1.16461636285       1200.50       3.84361
19.0023752969       1.27372125936       1224.72       1.42276
19.5024378047       1.38776217129       1234.59       4.51988
20.0025003125       1.50629429357       1239.63       0.25129
20.5025628204       1.62878697084       1289.57       111.48281
21.0026253282       1.75462586816       1320.37       15.97399
21.502687836       1.88311703378       1345.66       5.59304
22.0027503438       2.01349289335       1364.71       17.69666
22.5028128516       2.14492016116       1368.49       51.90508
23.0028753594       2.27650959601       1373.40       24.90225
23.5029378672       2.40732746975       1397.89       317.78615
24.003000375       2.53640855772       1477.61       19.10242
24.5030628829       2.66277040337       1492.06       3.33136
25.0031253907       2.78542855843       1554.11       92.24886
25.5031878985       2.90341245538       1637.78       16.01513
26.0032504063       3.01578153444       1656.84       45.29521
26.5033129141       3.12164122354       1661.35       46.30938
27.0033754219       3.22015835882       1842.88       250.02654
27.5034379297       3.3105756362       3018.37       34.61946
28.0035004376       3.3922247013       3041.09       10.36301
28.5035629454       3.46453751644       3068.11       19.06898
29.0036254532       3.52705568786       3155.20       24.45807
29.503687961       3.57943749336       3157.05       5.80593
30.0037504688       3.62146241775       3179.03       8.07742
30.5038129766       3.65303307902       3196.34       4.98876
31.0038754844       3.67417450883       3490.63       112.46062
31.5039379922       3.68503083443       3502.56       74.24876
32.0040005001       3.68585949135       3573.87       8.03612
32.5040630079       3.67702317503       3799.09       65.34856
33.0041255157       3.65897981075
33.5041880235       3.63227088322
34.0042505313       3.59750851604
34.5043130391       3.55536172647
35.0043755469       3.50654229998
35.5044380548       3.45179073177
36.0045005626       3.39186266868
36.5045630704       3.32751625494
37.0046255782       3.25950074096
37.504688086       3.18854665677
38.0047505938       3.11535778401
38.5048131016       3.04060508468
39.0048756095       2.9649226646
39.5049381173       2.88890576753
40.0050006251       2.81311071563
40.5050631329       2.7380566363
41.0051256407       2.66422874715
41.5051881485       2.59208291265
42.0052506563       2.52205113958
42.5053131641       2.45454764537
43.005375672       2.38997511523
43.5054381798       2.32873075965
44.0055006876       2.27121179561
44.5055631954       2.21781999919
45.0056257032       2.16896501585
45.505688211       2.12506616353
46.0057507188       2.08655252313
46.5058132267       2.05386117696
47.0058757345       2.0274335276
47.5059382423       2.0077097036
48.0060007501       1.99512113345
48.5060632579       1.99008144167
49.0061257657       1.99297588949
49.5061882735       2.00414964463
50.0062507813       2.02389521875
50.5063132892       2.05243945517
51.006375797       2.08993048269
51.5064383048       2.13642507176
52.0065008126       2.19187683745
52.5065633204       2.25612572766
53.0066258282       2.32888921637
53.506688336       2.40975558907
54.0067508439       2.49817966285
54.5068133517       2.59348122707
55.0068758595       2.69484642367
55.5069383673       2.80133221064
56.0070008751       2.91187396995
56.5070633829       3.02529623429
57.0071258907       3.14032641815
57.5071883985       3.25561135033
58.0072509064       3.36973631952
58.5073134142       3.48124626555
59.007375922       3.58866867783
59.5074384298       3.69053770293
60.0075009376       3.78541891658
60.5075634454       3.87193418406
61.0076259532       3.94878601775
61.5076884611       4.01478084334
62.0077509689       4.06885060606
62.5078134767       4.11007218579
63.0078759845       4.13768414415
63.5079384923       4.15110039501
64.0080010001       4.14992047221
64.5080635079       4.13393615961
65.0081260158       4.10313434808
65.5081885236       4.05769608709
66.0082510314       3.99799190195
66.5083135392       3.9245735483
67.008376047       3.83816246961
67.5084385548       3.73963530794
68.0085010626       3.63000689038
68.5085635704       3.51041117136
69.0086260783       3.38208065235
69.5086885861       3.24632482448
70.0087510939       3.10450818582
70.5088136017       2.95802837383
71.0088761095       2.80829492532
71.5089386173       2.65670913356
72.0090011251       2.5046454153
72.509063633       2.35343453376
73.0091261408       2.20434894835
73.5091886486       2.05859048124
74.0092511564       1.91728040848
74.5093136642       1.78145200136
75.009376172       1.65204546501
75.5094386798       1.52990514881
76.0095011876       1.41577883874
76.5095636955       1.31031888756
77.0096262033       1.21408489529
77.5096887111       1.12754762233
78.0097512189       1.05109379932
78.5098137267       0.98503149293
79.0098762345       0.92959569454
79.5099387423       0.884953817752
80.0100012502       0.851210820973
80.510063758       0.828413710462
81.0101262658       0.816555226338
81.5101887736       0.815576567033
82.0102512814       0.825369064653
82.5103137892       0.845774782792
83.010376297       0.876586067423
83.5104388049       0.917544138683
84.0105013127       0.968336864694
84.5105638205       1.02859590632
85.0106263283       1.09789346224
85.5106888361       1.17573887572
86.0107513439       1.26157538624
86.5108138517       1.35477732106
87.0108763595       1.45464802128
87.5109388674       1.56041878629
88.0110013752       1.67124909712
88.511063883       1.78622834632
89.0111263908       1.90437925789
89.5111888986       2.02466312899
90.0112514064       2.14598696544
90.5113139142       2.2672125189
91.0113764221       2.38716716534
91.5114389299       2.50465649665
92.0115014377       2.61847843011
92.5115639455       2.72743857803
93.0116264533       2.83036656397
93.5116889611       2.92613292476
94.0117514689       3.01366620086
94.5118139767       3.09196979398
95.0118764846       3.16013815973
95.5119389924       3.21737190734
96.0120015002       3.26299139601
96.512064008       3.29644844984
97.0121265158       3.31733585822
97.5121890236       3.32539438534
98.0122515314       3.32051707874
98.5123140393       3.30275074063
99.0123765471       3.27229450439
99.5124390549       3.22949553885
100.012501563       3.17484198287
100.512564071       3.10895328853
101.012626578       3.03256822105
101.512689086       2.94653082424
102.012751594       2.85177471073
102.512814102       2.74930607432
103.01287661       2.64018584638
103.512939117       2.52551142943
104.013001625       2.40639843827
104.513064133       2.28396286318
105.013126641       2.15930404202
105.513189149       2.03348878905
106.013251656       1.90753698145
106.513314164       1.78240884996
107.013376672       1.65899416165
107.51343918       1.53810342163
108.013501688       1.42046115947
108.513564196       1.30670130719
109.013626703       1.19736461999
109.513689211       1.0928980417
110.013751719       0.993655873197
110.513814227       0.89990256715
111.013876735       0.811816944969
111.513939242       0.729497613029
112.01400175       0.652969344903
112.514064258       0.582190193623
113.014126766       0.517059102687
113.514189274       0.457423795491
114.014251781       0.403088739204
114.514314289       0.353822999673
115.014376797       0.309367827582
115.514439305       0.269443841746
116.014501813       0.233757701918
116.514564321       0.202008189951
117.014626828       0.173891643683
117.514689336       0.149106711774
118.014751844       0.12735841945
118.514814352       0.108361554138
119.01487686       0.0918433962422
119.514939367       0.0775458335034
120.015001875       0.0652269076787
120.515064383       0.054661849657
121.015126891       0.045643663861
121.515189399       0.0379833251105
122.015251906       0.0315096513384
122.515314414       0.0260689139984
123.015376922       0.0215242450047
123.51543943       0.0177548949389
124.015501938       0.0146553923373
124.515564446       0.0121346484265
125.015626953       0.0101150459311
125.515689461       0.00853154474406
126.015751969       0.00733083148343
126.515814477       0.00647053437502
127.015876985       0.0059185195833
127.515939492       0.00565228010959
128.016002       0.00565842370523
128.516064508       0.00593226190802
129.016127016       0.00647749828314
129.516189524       0.00730601020939
130.016252032       0.00843771506635
130.516314539       0.00990050842193
131.016377047       0.0117302587736
131.516439555       0.0139708405536
132.016502063       0.0166741844796
132.516564571       0.0199003219445
133.016627078       0.0237173980422
133.516689586       0.0282016260903
134.016752094       0.0334371552129
134.516814602       0.0395158218057
135.01687711       0.0465367556163
135.516939617       0.0546058118671
136.017002125       0.063834802437
136.517064633       0.0743405017131
137.017127141       0.0862434064172
137.517189649       0.0996662335602
138.017252157       0.114732146727
138.517314664       0.13156270811
139.017377172       0.150275562039
139.51743968       0.170981865083
140.017502188       0.193783487901
140.517564696       0.218770024719
141.017627203       0.246015657227
141.517689711       0.275575930506
142.017752219       0.307484508899
142.517814727       0.341749989075
143.017877235       0.378352855441
143.517939742       0.417242669102
144.01800225       0.458335585262
144.518064758       0.50151229496
145.018127266       0.546616484993
145.518189774       0.593453904501
146.018252282       0.64179211798
146.518314789       0.691361012269
147.018377297       0.741854109602
147.518439805       0.792930720338
148.018502313       0.844218947874
148.518564821       0.89531953519
149.018627328       0.945810517959
149.518689836       0.995252624213
150.018752344       1.04319533582
150.518814852       1.08918350355
151.01887736       1.13276438625
151.518939867       1.17349496614
152.019002375       1.21094937807
152.519064883       1.24472628021
153.019127391       1.27445598909
153.519189899       1.29980720218
154.019252407       1.32049313749
154.519314914       1.33627693123
155.019377422       1.34697615154
155.51943993       1.35246630806
156.019502438       1.35268326298
156.519564946       1.34762447818
157.019627453       1.3373490647
157.519689961       1.32197663301
158.019752469       1.30168497552
158.519814977       1.27670664407
159.019877485       1.24732451434
159.519939992       1.21386645575
160.0200025       1.17669924698
160.520065008       1.13622189492
161.020127516       1.0928585269
161.520190024       1.04705103262
162.020252532       0.999251633098
162.520315039       0.949915549754
163.020377547       0.89949393671
163.520440055       0.84842722575
164.020502563       0.797139014964
164.520565071       0.746030611185
165.020627578       0.695476312899
165.520690086       0.645819495744
166.020752594       0.597369537628
166.520815102       0.550399596032
167.02087761       0.505145226766
167.520940118       0.461803812195
168.021002625       0.420534748226
168.521065133       0.381460323605
169.021127641       0.344667212591
169.521190149       0.310208493042
170.021252657       0.278106096275
170.521315164       0.248353592759
171.021377672       0.220919218384
171.52144018       0.195749049531
172.021502688       0.172770240964
172.521565196       0.151894248281
173.021627703       0.133019965805
173.521690211       0.116036720973
174.021752719       0.10082707691
174.521815227       0.0872694057252
175.021877735       0.075240205571
175.521940243       0.0646161445358
176.02200275       0.0552758235946
176.522065258       0.0471012590193
177.022127766       0.0399790916836
177.522190274       0.0338015365295
178.022252782       0.028467090066
178.522315289       0.0238810171874
179.022377797       0.0199556408859
179.522440305       0.0166104596933
180.022502813       0.0137721180421
180.522565321       0.0113742543103
181.022627828       0.00935725026114
181.522690336       0.0076679040298
182.022752844       0.00625904689616
182.522815352       0.00508912192191
183.02287786       0.00412174024617
183.522940368       0.0033252285134
184.023002875       0.00267217863361
184.523065383       0.00213900891104
185.023127891       0.00170554356978
185.523190399       0.00135461588862
186.023252907       0.00107169855045
186.523315414       0.000844563424729
187.023377922       0.000662971833088
187.52344043       0.000518395390459
188.023502938       0.00040376675348
188.523565446       0.000313259026774
189.023627953       0.000242092155741
189.523690461       0.000186364350585
190.023752969       0.000142906419055
190.523815477       0.000109156814038
191.023877985       8.30552075639e-05
191.523940493       6.29524672567e-05
192.024003       4.75350194813e-05
192.524065508       3.57617219934e-05
193.024128016       2.68115266611e-05
193.524190524       2.00403808003e-05
194.024253032       1.49459867182e-05
194.524315539       1.11392079031e-05
195.024378047       8.32107318072e-06
195.524440555       6.26448471089e-06
196.024503063       4.79988069515e-06
196.524565571       3.80423886878e-06
197.024628079       3.19293280252e-06
197.524690586       2.91407094386e-06
198.024753094       2.94505990273e-06
198.524815602       3.29124086493e-06
199.02487811       3.98655365522e-06
199.524940618       5.09628957354e-06
200.025003125       6.72210457805e-06
200.525065633       9.00958168544e-06
201.025128141       1.21587586508e-05
201.525190649       1.64381770905e-05
202.025253157       2.22031651061e-05
202.525315664       2.9919239801e-05
203.025378172       4.01917110727e-05
203.52544068       5.38027853879e-05
204.025503188       7.17577087026e-05
204.525565696       9.53417510487e-05
205.025628204       0.000126190119887
205.525690711       0.000166373191718
206.025753219       0.000218499766087
206.525815727       0.000285841364854
207.025878235       0.000372480911428
207.525940743       0.000483489415014
208.02600325       0.000625134535742
208.526065758       0.000805125095669
209.026128266       0.00103289570185
209.526190774       0.00131993563075
210.026253282       0.00168016595402
210.526315789       0.00213036852722
211.026378297       0.00269066987511
211.526440805       0.00338508214985
212.026503313       0.00424210217093
212.526565821       0.00529536804106
213.026628329       0.00658437093792
213.526690836       0.00815521738375
214.026753344       0.0100614345809
214.526815852       0.0123648082724
215.02687836       0.0151362390664
215.526940868       0.0184565992895
216.027003375       0.0224175682816
216.527065883       0.0271224197023
217.027128391       0.0326867300224
217.527190899       0.0392389730657
218.027253407       0.046920961455
218.527315914       0.0558880922891
219.027378422       0.0663093516042
219.52744093       0.0783670303795
220.027503438       0.0922561043218
220.527565946       0.108183230656
221.027628454       0.126365317908
221.527690961       0.147027629426
222.027753469       0.170401388294
222.527815977       0.196720860496
223.027878485       0.226219904707
223.527940993       0.259127990868
224.0280035       0.295665705603
224.528066008       0.33603978029
225.028128516       0.380437696773
225.528191024       0.4290219459
226.028253532       0.481924034535
226.52831604       0.539238356816
227.028378547       0.601016064367
227.528441055       0.667259087075
228.028503563       0.737914469996
228.528566071       0.81286920217
229.028628579       0.891945718683
229.528691086       0.974898257588
230.028753594       1.06141024762
230.528816102       1.1510928907
231.02887861       1.24348508465
231.528941118       1.33805480685
232.029003625       1.43420204816
232.529066133       1.5312633504
233.029128641       1.62851795885
233.529191149       1.72519555725
234.029253657       1.82048550538
234.529316165       1.91354745211
235.029378672       2.00352315055
235.52944118       2.0895492582
236.029503688       2.17077086614
236.529566196       2.24635546826
237.029628704       2.31550705684
237.529691211       2.37748001389
238.029753719       2.43159246183
238.529816227       2.47723874077
239.029878735       2.51390069455
239.529941243       2.54115747274
240.03000375       2.55869359076
240.530066258       2.5663050342
241.030128766       2.56390324437
241.530191274       2.55151687923
242.030253782       2.52929130462
242.53031629       2.49748583284
243.030378797       2.45646878818
243.530441305       2.40671053793
244.030503813       2.34877468259
244.530566321       2.28330764748
245.030628829       2.21102695811
245.530691336       2.13270851353
246.030753844       2.04917319269
246.530816352       1.96127314006
247.03087886       1.86987807714
247.530941368       1.77586197654
248.031003875       1.68009041678
248.531066383       1.58340890806
249.031128891       1.48663244532
249.531191399       1.3905365048
250.031253907       1.29584965658
250.531316415       1.20324791952
251.031378922       1.11335093789
251.53144143       1.02672001327
252.031503938       0.943857980552
252.531566446       0.865210876324
253.031628954       0.791171310087
253.531691461       0.722083416226
254.031753969       0.658249236085
254.531816477       0.599936355913
255.031878985       0.54738660709
255.531941493       0.500825619718
256.032004001       0.460473008687
256.532066508       0.426552962225
257.032129016       0.399304995837
257.532191524       0.378994629104
258.032254032       0.365923738286
258.53231654       0.360440333909
259.032379047       0.362947509266
