#  x                 y             frequency           intensity
0.0       9.45507212297e-05       36.08       2.46859
0.500062507813       0.000125097964297       53.14       10.35392
1.00012501563       0.000164869000744       64.64       0.21388
1.50018752344       0.000216436833603       85.69       2.66778
2.00025003125       0.000283026292165       166.62       2.12663
2.50031253907       0.000368659885041       206.13       28.68144
3.00037504688       0.000478331002474       228.92       48.88578
3.50043755469       0.000618208231954       289.73       18.88103
4.00050006251       0.000795874728593       325.03       7.56453
4.50056257032       0.0010206066731       341.47       94.22295
5.00062507813       0.00130369482654       376.74       3.25813
5.50068758595       0.00165881301973       417.44       29.97702
6.00075009376       0.00210243706059       423.16       1.53781
6.50081260158       0.00265431696796       434.43       9.96561
7.00087510939       0.00333800460686       474.75       9.64062
7.5009376172       0.00418143767126       494.94       92.13966
8.00100012502       0.00521757950202       514.17       10.12450
8.50106263283       0.00648511241206       574.48       17.12367
9.00112514064       0.00802917999795       623.09       14.41403
9.50118764846       0.00990217133956       659.92       0.63346
10.0012501563       0.012164537035       725.64       3.38955
10.5013126641       0.0148856237127       737.39       6.33490
11.0013751719       0.0181445100566       767.20       2.49508
11.5014376797       0.0220308235431       815.19       20.77310
12.0015001875       0.0266455131329       837.77       11.28835
12.5015626953       0.032101549202       852.88       18.59587
13.0016252032       0.0385245182146       872.85       13.01508
13.501687711       0.0460530762138       897.41       88.99896
14.0017502188       0.0548392223563       928.49       11.23884
14.5018127266       0.0650483516882       941.24       3.43034
15.0018752344       0.0768590454012       975.23       0.86297
15.5019377422       0.0904625571816       996.45       47.24063
16.00200025       0.106061956235       1036.36       0.52723
16.5020627578       0.123870891358       1120.43       27.04399
17.0021252657       0.144111946269       1129.21       38.46291
17.5021877735       0.167014564406       1143.88       2.90331
18.0022502813       0.192812531715       1182.25       20.56878
18.5023127891       0.221741018523       1190.97       164.33383
19.0023752969       0.25403319635       1201.93       5.53914
19.5024378047       0.289916462271       1230.00       6.92319
20.0025003125       0.329608321858       1241.24       26.98489
20.5025628204       0.373312001311       1271.73       268.39211
21.0026253282       0.421211879636       1291.38       91.87279
21.502687836       0.473468851825       1329.44       56.26103
22.0027503438       0.530215753194       1356.46       1.10056
22.5028128516       0.591552992401       1369.41       29.04303
23.0028753594       0.657544555222       1377.81       4.52744
23.5029378672       0.728214551861       1407.19       4.92055
24.003000375       0.803544486512       1474.59       13.72175
24.5030628829       0.883471428016       1486.41       6.82397
25.0031253907       0.967887254019       1552.99       94.14854
25.5031878985       1.05663912734       1634.75       14.79315
26.0032504063       1.14953134177       1658.89       46.26932
26.5033129141       1.24632864527       1669.04       38.11731
27.0033754219       1.34676111109       1845.48       205.36907
27.5034379297       1.45053058299       3001.06       22.50074
28.0035004376       1.55731866922       3035.02       50.97457
28.5035629454       1.66679620317       3089.44       12.00799
29.0036254532       1.77863402815       3153.72       16.50440
29.503687961       1.89251490026       3170.53       6.06695
30.0037504688       2.00814624109       3178.92       6.48574
30.5038129766       2.12527341079       3198.90       3.25518
31.0038754844       2.24369311671       3485.33       2.71275
31.5039379922       2.36326652462       3553.09       8.79681
32.0040005001       2.48393160125       3769.45       33.60160
32.5040630079       2.60571419159       3798.81       66.31191
33.0041255157       2.72873732348
33.5041880235       2.85322823812
34.0042505313       2.97952266904
34.5043130391       3.10806593507
35.0043755469       3.23941047499
35.5044380548       3.37420953224
36.0045005626       3.51320679629
36.5045630704       3.65722192096
37.0046255782       3.80713196629
37.504688086       3.96384894598
38.0047505938       4.12829380337
38.5048131016       4.30136728027
39.0048756095       4.48391827985
39.5049381173       4.67671045253
40.0050006251       4.88038784666
40.5050631329       5.09544055883
41.0051256407       5.32217138775
41.5051881485       5.56066453594
42.0052506563       5.81075741262
42.5053131641       6.0720165657
43.005375672       6.34371871099
43.5054381798       6.62483773118
44.0055006876       6.91403838809
44.5055631954       7.20967733163
45.0056257032       7.50981180149
45.505688211       7.81221620832
46.0057507188       8.11440655638
46.5058132267       8.41367243601
47.0058757345       8.70711607996
47.5059382423       8.99169775093
48.0060007501       9.26428651594
48.5060632579       9.5217152755
49.0061257657       9.76083875789
49.5061882735       9.97859306885
50.0062507813       10.1720553088
50.5063132892       10.3385017373
51.006375797       10.47546298
51.5064383048       10.5807748373
52.0065008126       10.6526233641
52.5065633204       10.6895830423
53.0066258282       10.6906470607
53.506688336       10.6552489396
54.0067508439       10.5832749833
54.5068133517       10.4750673061
55.0068758595       10.3314174479
55.5069383673       10.1535508548
56.0070008751       9.94310275818
56.5070633829       9.70208621123
57.0071258907       9.43285324676
57.5071883985       9.13805028508
58.0072509064       8.82056904719
58.5073134142       8.48349431094
59.007375922       8.13004988506
59.5074384298       7.76354416856
60.0075009376       7.38731661225
60.5075634454       7.0046863095
61.0076259532       6.61890381834
61.5076884611       6.23310716398
62.0077509689       5.85028279568
62.5078134767       5.47323208189
63.0078759845       5.10454373076
63.5079384923       4.74657232614
64.0080010001       4.40142297939
64.5080635079       4.07094192061
65.0081260158       3.7567126948
65.5081885236       3.4600574932
66.0082510314       3.182043041
66.5083135392       2.92349038122
67.008376047       2.68498784222
67.5084385548       2.46690645268
68.0085010626       2.26941707095
68.5085635704       2.09250852407
69.0086260783       1.93600610248
69.5086885861       1.7995898247
70.0087510939       1.68281197042
70.5088136017       1.58511347372
71.0088761095       1.50583886897
71.5089386173       1.44424958374
72.0090011251       1.39953547406
72.509063633       1.37082459263
73.0091261408       1.35719126763
73.5091886486       1.35766264583
74.0092511564       1.3712239168
74.5093136642       1.3968224836
75.009376172       1.43337137838
75.5094386798       1.47975223874
76.0095011876       1.53481816248
76.5095636955       1.59739674547
77.0096262033       1.66629358058
77.5096887111       1.74029645708
78.0097512189       1.81818045112
78.5098137267       1.89871404149
79.0098762345       1.98066632278
79.5099387423       2.06281532348
80.0100012502       2.1439573716
80.510063758       2.22291738787
81.0101262658       2.29855992874
81.5101887736       2.3698007508
82.0102512814       2.43561862649
82.5103137892       2.49506710954
83.010376297       2.54728592928
83.5104388049       2.59151168591
84.0105013127       2.62708752406
84.5105638205       2.65347148052
85.0106263283       2.67024323128
85.5106888361       2.67710900356
86.0107513439       2.67390446755
86.5108138517       2.66059547915
87.0108763595       2.63727660588
87.5109388674       2.6041674322
88.0110013752       2.56160670435
88.511063883       2.51004443676
89.0111263908       2.45003215927
89.5111888986       2.38221153584
90.0112514064       2.30730162783
90.5113139142       2.2260851085
91.0113764221       2.13939375843
91.5114389299       2.04809358293
92.0115014377       1.95306989391
92.5115639455       1.85521268835
93.0116264533       1.75540263575
93.5116889611       1.65449795836
94.0117514689       1.55332245148
94.5118139767       1.45265484932
95.0118764846       1.35321969574
95.5119389924       1.25567983049
96.0120015002       1.16063055304
96.512064008       1.06859547799
97.0121265158       0.980024051434
97.5121890236       0.895290656375
98.0122515314       0.81469520006
98.5123140393       0.73846504593
99.0123765471       0.666758129975
99.5124390549       0.599667084618
100.012501563       0.537224183557
100.512564071       0.479406917552
101.012626578       0.426144013726
101.512689086       0.377321718743
102.012751594       0.332790178472
102.512814102       0.292369762618
103.01287661       0.255857201328
103.512939117       0.223031421054
104.013001625       0.193658988177
104.513064133       0.16749909016
105.013126641       0.144308004672
105.513189149       0.123843026603
106.013251656       0.105865840635
106.513314164       0.090145342791
107.013376672       0.0764599278314
107.51343918       0.0645992704265
108.013501688       0.0543656366989
108.513564196       0.0455747690494
109.013626703       0.0380563913102
109.513689211       0.0316543834197
110.013751719       0.0262266752097
110.513814227       0.0216449078242
111.013876735       0.017793909002
111.513939242       0.0145710252482
112.01400175       0.0118853500337
112.514064258       0.00965688285425
113.014126766       0.00781564944211
113.514189274       0.00630080886502
114.014251781       0.00505976879023
114.514314289       0.00404732597963
115.014376797       0.00322484518826
115.514439305       0.00255948613158
116.014501813       0.0020234850982
116.514564321       0.00159349513026
117.014626828       0.00124998646837
117.514689336       0.000976707143663
118.014751844       0.000760202168867
118.514814352       0.000589388695598
119.01487686       0.000455183728105
119.514939367       0.000350180470956
120.015001875       0.000268369098685
120.515064383       0.00020489762866
121.015126891       0.000155868617188
121.515189399       0.000118167549601
122.015251906       8.93190282154e-05
122.515314414       6.73671525375e-05
123.015376922       5.07768130723e-05
123.51543943       3.8352966859e-05
124.015501938       2.91753165651e-05
124.515564446       2.25461661977e-05
125.015626953       1.79495688535e-05
125.515689461       1.50202116415e-05
126.015751969       1.35207983474e-05
126.515814477       1.33269916758e-05
127.015876985       1.44192654676e-05
127.515939492       1.68812955752e-05
128.016002       2.09047891447e-05
128.516064508       2.68009192768e-05
129.016127016       3.50187987564e-05
129.516189524       4.61716958105e-05
130.016252032       6.10719690784e-05
130.516314539       8.07759796532e-05
131.016377047       0.000106640525402
131.516439555       0.000140392635426
132.016502063       0.000184214857171
132.516564571       0.000240848459761
133.016627078       0.000313717256334
133.516689586       0.000407075004371
134.016752094       0.000526179561732
134.516814602       0.000677497139635
135.01687711       0.000868940080623
135.516939617       0.001110141575
136.017002125       0.00141277058527
136.517064633       0.00179088994388
137.017127141       0.0022613600929
137.517189649       0.0028442902108
138.017252157       0.00356353748933
138.517314664       0.00444725405081
139.017377172       0.00552847940754
139.51743968       0.00684577444078
140.017502188       0.00844389060695
140.517564696       0.0103744654665
141.017627203       0.0126967326938
141.517689711       0.0154782315033
142.017752219       0.0187954969708
142.517814727       0.0227347091292
143.017877235       0.0273922750713
143.517939742       0.0328753147366
144.01800225       0.039302017752
144.518064758       0.0468018358093
145.018127266       0.0555154728036
145.518189774       0.0655946335357
146.018252282       0.0772014914094
146.518314789       0.0905078364687
147.018377297       0.105693867499
147.518439805       0.122946595965
148.018502313       0.142457835397
148.518564821       0.164421757595
149.018627328       0.189032006643
149.518689836       0.21647837331
150.018752344       0.246943045651
150.518814852       0.280596466414
151.01887736       0.317592843859
151.518939867       0.358065379289
152.019002375       0.402121291607
152.519064883       0.449836735829
153.019127391       0.501251728074
153.519189899       0.556365203445
154.019252407       0.615130344625
154.519314914       0.677450327212
155.019377422       0.743174632231
155.51943993       0.812096076145
156.019502438       0.883948703725
156.519564946       0.958406678881
157.019627453       1.03508429292
157.519689961       1.11353718878
158.019752469       1.19326487371
158.519814977       1.27371456249
159.019877485       1.35428635887
159.519939992       1.43433974576
160.0200025       1.51320131608
160.520065008       1.59017363665
161.020127516       1.66454509969
161.520190024       1.7356005803
162.020252532       1.80263268678
162.520315039       1.86495336376
163.020377547       1.92190558804
163.520440055       1.97287488429
164.020502563       2.01730038342
164.520565071       2.05468515066
165.020627578       2.08460552381
165.520690086       2.10671922394
166.020752594       2.12077203128
166.520815102       2.12660285647
167.02087761       2.12414708129
167.520940118       2.11343809171
168.021002625       2.09460697793
168.521065133       2.06788042968
169.021127641       2.03357690816
169.521190149       1.99210122708
170.021252657       1.94393772294
170.521315164       1.88964223665
171.021377672       1.8298331643
171.52144018       1.765181863
172.021502688       1.6964027172
172.521565196       1.62424318177
173.021627703       1.54947411983
173.521690211       1.47288074627
174.021752719       1.39525447242
174.521815227       1.31738592364
175.021877735       1.24005937168
175.521940243       1.16404878663
176.02200275       1.09011567186
176.522065258       1.01900879966
177.022127766       0.951465916026
177.522190274       0.888217432202
178.022252782       0.829992067524
178.522315289       0.777524354806
179.022377797       0.731563865611
179.522440305       0.692885959237
180.022502813       0.662303806254
180.522565321       0.640681385552
181.022627828       0.628947103366
181.522690336       0.628107634265
182.022752844       0.639261538255
182.522815352       0.663612165847
183.02287786       0.702479325323
183.522940368       0.757309154874
184.023002875       0.829681618534
184.523065383       0.921315030792
185.023127891       1.0340670127
185.523190399       1.16993129447
186.023252907       1.33102980843
186.523315414       1.51959956421
187.023377922       1.73797386678
187.52344043       1.9885575301
188.023502938       2.27379585454
188.523565446       2.59613727633
189.023627953       2.95798976107
189.523690461       3.36167119844
190.023752969       3.80935426061
190.523815477       4.3030064057
191.023877985       4.84432593726
191.523940493       5.43467526186
192.024003       6.07501271399
192.524065508       6.76582452955
193.024128016       7.50705873904
193.524190524       8.29806290749
194.024253032       9.13752776189
194.524315539       10.0234388089
195.024378047       10.9530380473
195.524440555       11.9227978159
196.024503063       12.9284086817
196.524565571       13.9647830645
197.024628079       15.0260760125
197.524690586       16.1057241938
198.024753094       17.1965037496
198.524815602       18.2906071916
199.02487811       19.3797390114
199.524940618       20.4552291315
200.025003125       21.5081627804
200.525065633       22.5295248277
201.025128141       23.5103561024
201.525190649       24.4419187408
202.025253157       25.3158672034
202.525315664       26.1244212642
203.025378172       26.8605370409
203.52544068       27.5180719923
204.025503188       28.0919397881
204.525565696       28.5782510416
205.025628204       28.9744360993
205.525690711       29.2793463924
206.025753219       29.4933312662
206.525815727       29.6182877051
207.025878235       29.657680945
207.525940743       29.6165345979
208.02600325       29.5013895795
208.526065758       29.3202318271
209.026128266       29.0823894769
209.526190774       28.7984008477
210.026253282       28.4798552116
210.526315789       28.1392089247
211.026378297       27.7895800137
211.526440805       27.4445247803
212.026503313       27.1178003592
212.526565821       26.8231174742
213.026628329       26.5738878543
213.526690836       26.3829709107
214.026753344       26.2624243373
214.526815852       26.2232632773
215.02687836       26.2752326107
215.526940868       26.4265967522
216.027003375       26.6839511226
216.527065883       27.0520591611
217.027128391       27.5337183846
217.527190899       28.1296585846
218.027253407       28.838474764
218.527315914       29.6565968814
219.027378422       30.5782978667
219.52744093       31.5957407252
220.027503438       32.6990648439
220.527565946       33.8765108802
221.027628454       35.1145828397
221.527690961       36.3982451687
222.027753469       37.7111519051
222.527815977       39.0359041627
223.027878485       40.3543315071
223.527940993       41.6477921152
224.0280035       42.8974860443
224.528066008       44.0847754681
225.028128516       45.1915054086
225.528191024       46.2003183111
226.028253532       47.094955793
226.52831604       47.8605410543
227.028378547       48.483835776
227.528441055       48.9534658484
228.028503563       49.2601109504
228.528566071       49.3966538385
229.028628579       49.3582861663
229.528691086       49.1425687249
230.028753594       48.7494451293
230.528816102       48.1812091505
231.02887861       47.4424270574
231.528941118       46.5398174595
232.029003625       45.4820921896
232.529066133       44.2797626951
233.029128641       42.9449171991
233.529191149       41.4909745121
234.029253657       39.9324208125
234.529316165       38.2845359498
235.029378672       36.5631158685
235.52944118       34.7841975901
236.029503688       32.9637928528
236.529566196       31.1176360021
237.029628704       29.2609510792
237.529691211       27.4082422884
238.029753719       25.5731111835
238.529816227       23.7681030135
239.029878735       22.0045837561
239.529941243       20.2926484636
240.03000375       18.6410606893
240.530066258       17.0572219722
241.030128766       15.5471696535
241.530191274       14.1156007071
242.030253782       12.7659187851
242.53031629       11.5003013265
243.030378797       10.3197833458
243.530441305       9.22435441065
244.030503813       8.21306531903
244.530566321       7.28414109455
245.030628829       6.43509711121
245.530691336       5.6628554262
246.030753844       4.96385872239
246.530816352       4.334179624
247.03087886       3.76962353444
247.530941368       3.26582353772
248.031003875       2.81832629201
248.531066383       2.42266821219
249.031128891       2.07444157979
249.531191399       1.769350525
250.031253907       1.5032570911
250.531316415       1.27221781501
251.031378922       1.07251143632
251.53144143       0.900658482088
252.031503938       0.753433569256
252.531566446       0.627871322128
253.031628954       0.521266824745
253.531691461       0.431171521194
254.031753969       0.35538544594
254.531816477       0.291946616346
255.031878985       0.239118355428
255.531941493       0.19537523909
256.032004001       0.159388282638
256.532066508       0.130009899803
257.032129016       0.106259086631
257.532191524       0.0873072047909
258.032254032       0.0724646656822
258.53231654       0.0611687493738
259.032379047       0.0529727314003
259.532441555       0.0475364359859
260.032504063       0.0446182860669
260.532566571       0.0440688780582
