#  x                 y             frequency           intensity
0.0       0.00214898133357       31.78       5.74090
0.500062507813       0.00274931763585       52.95       5.48615
1.00012501563       0.00350364678316       59.01       1.59409
1.50018752344       0.00444752954233       65.05       1.26250
2.00025003125       0.00562367863155       178.31       3.48684
2.50031253907       0.00708313108183       200.18       2.73148
3.00037504688       0.00888655018292       244.72       70.52115
3.50043755469       0.011105656964       297.05       1.32572
4.00050006251       0.0138247871795       338.95       6.35287
4.50056257032       0.017142564902       341.80       95.75518
5.00062507813       0.0211736780293       359.74       9.36400
5.50068758595       0.0260507342926       421.51       12.15912
6.00075009376       0.0319261687275       425.29       11.55127
6.50081260158       0.0389741651413       435.38       9.66079
7.00087510939       0.0473925449888       474.21       12.88524
7.5009376172       0.0574045674801       492.60       65.48974
8.00100012502       0.0692605749233       515.54       4.07995
8.50106263283       0.0832394076094       546.72       17.15909
9.00112514064       0.0996495033575       625.84       21.06904
9.50118764846       0.118829588636       659.36       0.41752
10.0012501563       0.141148861464       710.67       3.73557
10.5013126641       0.167006561679       739.74       0.84067
11.0013751719       0.196830822136       787.33       15.31891
11.5014376797       0.231076695743       809.36       110.21226
12.0015001875       0.270223258263       821.10       20.39838
12.5015626953       0.314769696317       837.14       20.58744
13.0016252032       0.365230304209       857.66       13.22888
13.501687711       0.422128332488       881.97       9.74999
14.0017502188       0.485988655702       913.13       4.47127
14.5018127266       0.557329256463       948.15       0.16465
15.0018752344       0.636651557579       955.83       0.49610
15.5019377422       0.724429672964       1020.20       4.02335
16.00200025       0.821098690633       1036.13       0.31191
16.5020627578       0.927042146219       1125.32       16.74432
17.0021252657       1.04257889183       1130.00       37.97789
17.5021877735       1.16794961112       1168.14       3.70902
18.0022502813       1.30330327544       1186.74       171.41835
18.5023127891       1.44868387602       1199.61       8.19786
19.0023752969       1.60401780121       1206.97       18.70786
19.5024378047       1.76910225392       1234.01       6.38049
20.0025003125       1.94359512095       1240.30       0.73554
20.5025628204       2.1270067104       1288.34       332.40845
21.0026253282       2.31869376539       1292.86       178.82974
21.502687836       2.51785613975       1321.76       11.97104
22.0027503438       2.72353648454       1346.97       1.95064
22.5028128516       2.93462324203       1365.24       18.30468
23.0028753594       3.14985717779       1368.89       10.91531
23.5029378672       3.36784160171       1406.71       30.97870
24.003000375       3.58705633775       1469.92       12.53222
24.5030628829       3.80587540165       1477.68       9.89829
25.0031253907       4.02258823878       1551.77       103.41124
25.5031878985       4.23542426425       1627.26       77.36513
26.0032504063       4.4425803374       1635.20       15.32542
26.5033129141       4.64225069739       1658.96       44.46009
27.0033754219       4.83265878897       1838.74       292.65517
27.5034379297       5.0120903221       2916.34       34.30758
28.0035004376       5.17892683889       3009.86       56.16359
28.5035629454       5.3316790097       3084.05       10.84800
29.0036254532       5.4690188497       3154.03       27.04756
29.503687961       5.58981003966       3155.86       2.66999
30.0037504688       5.69313555064       3189.35       4.73039
30.5038129766       5.77832181299       3196.48       3.75200
31.0038754844       5.84495873364       3512.92       10.83372
31.5039379922       5.89291495149       3602.22       15.04719
32.0040005001       5.92234782583       3773.16       46.61697
32.5040630079       5.93370777454       3798.47       68.12957
33.0041255157       5.92773671354
33.5041880235       5.90546049194
34.0042505313       5.8681753655
34.5043130391       5.81742869847
35.0043755469       5.75499422689
35.5044380548       5.68284235139
36.0045005626       5.60310604907
36.5045630704       5.51804310095
37.0046255782       5.42999541902
37.504688086       5.34134632479
38.0047505938       5.25447667691
38.5048131016       5.17172076907
39.0048756095       5.09532292028
39.5049381173       5.02739565959
40.0050006251       4.96988036585
40.5050631329       4.92451116353
41.0051256407       4.89278279904
41.5051881485       4.87592313045
42.0052506563       4.87487076035
42.5053131641       4.89025822875
43.005375672       4.92240106273
43.5054381798       4.97129285568
44.0055006876       5.03660642277
44.5055631954       5.11770095421
45.0056257032       5.21363496544
45.505688211       5.3231847269
46.0057507188       5.44486774697
46.5058132267       5.57697078212
47.0058757345       5.71758176078
47.5059382423       5.86462493321
48.0060007501       6.01589850043
48.5060632579       6.16911393259
49.0061257657       6.32193616185
49.5061882735       6.47202382781
50.0062507813       6.61706876524
50.5063132892       6.75483395367
51.006375797       6.88318919685
51.5064383048       7.0001438647
52.0065008126       7.10387611092
52.5065633204       7.19275807307
53.0066258282       7.26537666647
53.506688336       7.32054969578
54.0067508439       7.35733712535
54.5068133517       7.37504746838
55.0068758595       7.37323937134
55.5069383673       7.35171858156
56.0070008751       7.31053058838
56.5070633829       7.2499493194
57.0071258907       7.17046234985
57.5071883985       7.07275314462
58.0072509064       6.95768089513
58.5073134142       6.82625853925
59.007375922       6.679629559
59.5074384298       6.51904414062
60.0075009376       6.3458352549
60.5075634454       6.16139517416
61.0076259532       5.96715288899
61.5076884611       5.76455282441
62.0077509689       5.55503518552
62.5078134767       5.34001818813
63.0078759845       5.12088235541
63.5079384923       4.89895698793
64.0080010001       4.67550884521
64.5080635079       4.45173301405
65.0081260158       4.22874588344
65.5081885236       4.0075801
66.0082510314       3.78918134159
66.5083135392       3.57440672044
67.008376047       3.36402461095
67.5084385548       3.15871569029
68.0085010626       2.95907498139
68.5085635704       2.7656146963
69.0086260783       2.57876769271
69.5086885861       2.39889137502
70.0087510939       2.2262718932
70.5088136017       2.06112851634
71.0088761095       1.90361808096
71.5089386173       1.75383943725
72.0090011251       1.61183783726
72.509063633       1.47760922722
73.0091261408       1.35110442216
73.5091886486       1.23223315264
74.0092511564       1.12086798276
74.5093136642       1.01684810436
75.009376172       0.919983015238
75.5094386798       0.830056089886
76.0095011876       0.746828049867
76.5095636955       0.670040338137
77.0096262033       0.599418397923
77.5096887111       0.534674852657
78.0097512189       0.475512579376
78.5098137267       0.421627664334
79.0098762345       0.372712226595
79.5099387423       0.328457093318
80.0100012502       0.288554309434
80.510063758       0.252699464431
81.0101262658       0.220593820057
81.5101887736       0.191946224762
82.0102512814       0.166474803491
82.5103137892       0.143908414867
83.010376297       0.123987871605
83.5104388049       0.106466924081
84.0105013127       0.0911130109744
84.5105638205       0.0777077848441
85.0106263283       0.0660474240362
85.5106888361       0.0559427454542
86.0107513439       0.0472191353162
86.5108138517       0.0397163170079
87.0108763595       0.0332879765151
87.5109388674       0.0278012666665
88.0110013752       0.0231362115791
88.511063883       0.0191850323149
89.0111263908       0.0158514139031
89.5111888986       0.0130497326289
90.0112514064       0.0107042609189
90.5113139142       0.00874836535969
91.0113764221       0.00712371143855
91.5114389299       0.00577948657962
92.0115014377       0.00467165103349
92.5115639455       0.00376222421736
93.0116264533       0.00301861225003
93.5116889611       0.0024129807169
94.0117514689       0.00192167516107
94.5118139767       0.00152469044637
95.0118764846       0.00120518898275
95.5119389924       0.000949066844976
96.0120015002       0.00074456604543
96.512064008       0.000581930629301
97.0121265158       0.000453103830325
97.5121890236       0.00035146323996
98.0122515314       0.000271590783004
98.5123140393       0.000209074238962
99.0123765471       0.000160337081535
99.5124390549       0.000122493510571
100.012501563       9.32257047323e-05
100.512564071       7.06805143831e-05
101.012626578       5.33830295616e-05
101.512689086       4.016468655e-05
102.012751594       3.01038093709e-05
102.512814102       2.24767123493e-05
103.01287661       1.67177111758e-05
103.512939117       1.23865986776e-05
104.013001625       9.14233504781e-06
104.513064133       6.72187898309e-06
105.013126641       4.92324532161e-06
105.513189149       3.59201633288e-06
106.013251656       2.61065832219e-06
106.513314164       1.89010357654e-06
107.013376672       1.36315107153e-06
107.51343918       9.79319104937e-07
108.013501688       7.00850522106e-07
108.513564196       4.99627854992e-07
109.013626703       3.54802872535e-07
109.513689211       2.5098402007e-07
110.013751719       1.7685719446e-07
110.513814227       1.24141332375e-07
111.013876735       8.68013369754e-08
111.513939242       6.04577714886e-08
112.01400175       4.19462331498e-08
112.514064258       2.89900093877e-08
113.014126766       1.99580363458e-08
113.514189274       1.36867688861e-08
114.014251781       9.34969717832e-09
114.514314289       6.36220886056e-09
115.014376797       4.31254296353e-09
115.514439305       2.91191074921e-09
116.014501813       1.95862845687e-09
116.514564321       1.31244435629e-09
117.014626828       8.76247560114e-10
117.514689336       5.83097259434e-10
118.014751844       3.87069596085e-10
118.514814352       2.56832629696e-10
119.01487686       1.71164243211e-10
119.514939367       1.1585125876e-10
120.015001875       8.15717885466e-11
120.515064383       6.24831338383e-11
121.015126891       5.53267587449e-11
121.515189399       5.89295803668e-11
122.015251906       7.40346211578e-11
122.515314414       1.03440255615e-10
123.015376922       1.52471454576e-10
123.51543943       2.29854063148e-10
124.015501938       3.49120156944e-10
124.515564446       5.30745866701e-10
125.015626953       8.05321452607e-10
125.515689461       1.2181881517e-09
126.015751969       1.8361623707e-09
126.515814477       2.75722509424e-09
127.015876985       4.12440954929e-09
127.515939492       6.14560867945e-09
128.016002       9.12169289005e-09
128.516064508       1.34862399146e-08
129.016127016       1.98614139715e-08
129.516189524       2.91361967828e-08
130.016252032       4.25754059714e-08
130.516314539       6.19709135754e-08
131.016377047       8.98504245718e-08
131.516439555       1.29764378333e-07
132.016502063       1.86678354455e-07
132.516564571       2.6750724704e-07
133.016627078       3.81838973321e-07
133.516689586       5.42910284349e-07
134.016752094       7.68916174624e-07
134.516814602       1.08475843991e-06
135.01687711       1.52436929418e-06
135.516939617       2.13378402512e-06
136.017002125       2.97518406863e-06
136.517064633       4.13219048511e-06
137.017127141       5.71675973538e-06
137.517189649       7.87812123584e-06
138.017252157       1.08143019842e-05
138.517314664       1.47869103258e-05
139.017377172       2.0140001505e-05
139.51743968       2.73240248443e-05
140.017502188       3.69260588769e-05
140.517564696       4.97077788587e-05
141.017627203       6.66528725303e-05
141.517689711       8.90259256343e-05
142.017752219       0.000118445138114
142.517814727       0.000156971603046
143.017877235       0.000207218278955
143.517939742       0.000272482205356
144.01800225       0.000356903940973
144.518064758       0.000465658630226
145.018127266       0.000605183507908
145.518189774       0.000783447011336
146.018252282       0.00101026495527
146.518314789       0.00129766940357
147.018377297       0.00166033590353
147.518439805       0.00211607458917
148.018502313       0.00268639025945
148.518564821       0.00339711584308
149.018627328       0.0042791226184
149.518689836       0.00536910910974
150.018752344       0.00671046867874
150.518814852       0.00835423342285
151.01887736       0.0103600890485
151.518939867       0.01279745188
152.019002375       0.0157465950919
152.519064883       0.0192998066373
153.019127391       0.0235625562252
153.519189899       0.0286546431746
154.019252407       0.0347112911421
154.519314914       0.0418841497537
155.019377422       0.0503421572722
155.51943993       0.0602722128283
156.019502438       0.0718796017345
156.519564946       0.0853881132876
157.019627453       0.101039787598
157.519689961       0.119094226721
158.019752469       0.139827406061
158.519814977       0.163529925026
159.019877485       0.190504641551
159.519939992       0.221063643618
160.0200025       0.255524522503
160.520065008       0.294205927238
161.020127516       0.33742239766
161.520190024       0.385478494303
162.020252532       0.438662266918
162.520315039       0.497238129109
163.020377547       0.561439233894
163.520440055       0.631459472985
164.020502563       0.707445250525
164.520565071       0.789487208595
165.020627578       0.877612106145
165.520690086       0.971775073643
166.020752594       1.07185248171
166.520815102       1.17763567198
167.02087761       1.28882580147
167.520940118       1.40503004692
168.021002625       1.5257594023
168.521065133       1.65042828038
169.021127641       1.77835609825
169.521190149       1.90877098685
170.021252657       2.04081571674
170.521315164       2.17355587772
171.021377672       2.30599028952
171.52144018       2.43706355663
172.021502688       2.56568061448
172.521565196       2.69072304819
173.021627703       2.8110669024
173.521690211       2.92560164231
174.021752719       3.03324987543
174.521815227       3.13298740208
175.021877735       3.22386313235
175.521940243       3.30501838986
176.02200275       3.37570511872
176.522065258       3.43530252087
177.022127766       3.48333167585
177.522190274       3.51946773395
178.022252782       3.54354932561
178.522315289       3.55558489314
179.022377797       3.5557557236
179.522440305       3.54441554186
180.022502813       3.52208660758
180.522565321       3.48945234664
181.022627828       3.44734663423
181.522690336       3.3967399294
182.022752844       3.33872253864
182.522815352       3.27448535527
183.02287786       3.20529848122
183.522940368       3.13248818643
184.023002875       3.05741269707
184.523065383       2.9814373274
185.023127891       2.90590948027
185.523190399       2.83213403912
186.023252907       2.76134965922
186.523315414       2.69470644051
187.023377922       2.63324542796
187.52344043       2.57788034057
188.023502938       2.52938187787
188.523565446       2.48836489438
189.023627953       2.45527866991
189.523690461       2.4304004378
190.023752969       2.41383226568
190.523815477       2.40550131572
191.023877985       2.40516344413
191.523940493       2.41241003465
192.024003       2.42667789842
192.524065508       2.44726201435
193.024128016       2.4733308301
193.524190524       2.50394379592
194.024253032       2.53807076161
194.524315539       2.57461283229
195.024378047       2.61242425176
195.524440555       2.65033486413
196.024503063       2.68717269488
196.524565571       2.72178619312
197.024628079       2.75306568656
197.524690586       2.77996362071
198.024753094       2.80151318354
198.524815602       2.8168449553
199.02487811       2.82520127106
199.524940618       2.82594803809
200.025003125       2.81858381203
200.525065633       2.80274600157
201.025128141       2.77821414124
201.525190649       2.74491024217
202.025253157       2.70289630121
202.525315664       2.65236911595
203.025378172       2.59365261637
203.52544068       2.52718798061
204.025503188       2.45352185104
204.525565696       2.37329300689
205.025628204       2.28721787938
205.525690711       2.19607531427
206.025753219       2.10069099559
206.525815727       2.00192194147
207.025878235       1.90064147164
207.525940743       1.7977250243
208.02600325       1.69403717172
208.526065758       1.59042014847
209.026128266       1.48768416646
209.526190774       1.38659974844
210.026253282       1.28789226708
210.526315789       1.19223883375
211.026378297       1.10026763845
211.526440805       1.01255980367
212.026503313       0.929653779106
212.526565821       0.852052272654
213.026628329       0.780231686025
213.526690836       0.71465399925
214.026753344       0.655781028082
214.526815852       0.604090959377
215.02687836       0.56009705138
215.526940868       0.524368366377
216.027003375       0.497552380744
216.527065883       0.480399290121
217.027128391       0.473787793404
217.527190899       0.478752096896
218.027253407       0.496509827909
218.527315914       0.528490484546
219.027378422       0.576363974875
219.52744093       0.642068714807
220.027503438       0.727838660645
220.527565946       0.836228551833
221.027628454       0.970136534599
221.527690961       1.13282323226
222.027753469       1.32792622762
222.527815977       1.55946883301
223.027878485       1.83186195099
223.527940993       2.14989777983
224.0280035       2.51873410143
224.528066008       2.94386791128
225.028128516       3.43109721902
225.528191024       3.98646996933
226.028253532       4.61621921259
226.52831604       5.32668389566
227.028378547       6.12421494799
227.528441055       7.01506670471
228.028503563       8.00527413429
228.528566071       9.10051681579
229.028628579       10.3059711296
229.528691086       11.6261526737
230.028753594       13.0647514764
230.528816102       14.6244631288
231.02887861       16.3068194829
231.528941118       18.1120230298
232.029003625       20.0387894686
232.529066133       22.0842032639
233.029128641       24.2435911641
233.529191149       26.5104186711
234.029253657       28.8762143211
234.529316165       31.3305263246
235.029378672       33.8609156299
235.52944118       36.4529888067
236.029503688       39.0904733187
236.529566196       41.7553367612
237.029628704       44.4279505262
237.529691211       47.0872971365
238.029753719       49.7112192116
238.529816227       52.2767067217
239.029878735       54.7602179089
239.529941243       57.1380280447
240.03000375       59.3865991058
240.530066258       61.4829625233
241.030128766       63.4051064426
241.530191274       65.1323584522
242.030253782       66.6457545301
242.53031629       67.9283850284
243.030378797       68.9657088862
243.530441305       69.7458279131
244.030503813       70.2597139106
244.530566321       70.5013825706
245.030628829       70.468009467
245.530691336       70.1599849974
246.030753844       69.5809067783
246.530816352       68.7375097032
247.03087886       67.639535563
247.530941368       66.2995457571
248.031003875       64.7326821317
248.531066383       62.9563823076
249.031128891       60.9900569791
249.531191399       58.8547375245
250.031253907       56.5727028537
250.531316415       54.167094716
251.031378922       51.6615306925
251.53144143       49.079723823
252.031503938       46.4451172732
252.531566446       43.7805416808
253.031628954       41.1079018447
253.531691461       38.4478983032
254.031753969       35.819788114
254.531816477       33.2411878612
255.031878985       30.7279206099
255.531941493       28.2939072596
256.032004001       25.951101551
256.532066508       23.7094668917
257.032129016       21.5769922127
257.532191524       19.5597432774
