#  x                 y             frequency           intensity
0.0       0.00268660533254       22.87       0.13284
0.500062507813       0.00324572908089       31.92       1.30195
1.00012501563       0.0039087998287       55.67       0.43486
1.50018752344       0.00469258272261       64.59       0.61749
2.00025003125       0.00561606966902       166.27       0.36709
2.50031253907       0.00670069484948       185.88       0.44391
3.00037504688       0.00797055844429       244.75       25.93779
3.50043755469       0.00945265660819       271.05       0.93141
4.00050006251       0.0111771151968       299.82       10.53855
4.50056257032       0.0131774241146       335.27       99.44264
5.00062507813       0.0154906684401       356.34       1.91980
5.50068758595       0.0181577516723       384.51       3.32854
6.00075009376       0.0212236055447       421.59       1.41322
6.50081260158       0.0247373798595       430.99       8.84235
7.00087510939       0.0287526047269       491.23       9.27495
7.5009376172       0.0333273164634       524.50       17.10833
8.00100012502       0.0385241372365       559.25       15.13976
8.50106263283       0.0444102973777       596.03       121.94550
9.00112514064       0.0510575881687       633.43       32.77879
9.50118764846       0.0585422318889       659.83       0.04819
10.0012501563       0.066944655078       724.42       5.05239
10.5013126641       0.0763491503818       750.01       7.60363
11.0013751719       0.0868434121069       793.81       63.03575
11.5014376797       0.0985179308089       811.57       14.39745
12.0015001875       0.11146523297       823.87       56.34164
12.5015626953       0.12577895318       843.86       37.23132
13.0016252032       0.141552728324       866.73       41.74988
13.501687711       0.158878906141       883.85       4.72498
14.0017502188       0.177847064241       912.10       37.03553
14.5018127266       0.198542340264       938.48       15.18356
15.0018752344       0.221043579301       958.50       5.68424
15.5019377422       0.245421310976       982.17       8.17047
16.00200025       0.271735575558       1036.35       0.46803
16.5020627578       0.300033626035       1112.48       34.18210
17.0021252657       0.330347540993       1127.54       9.71830
17.5021877735       0.362691791218       1147.81       117.60889
18.0022502813       0.397060810808       1165.34       103.85651
18.5023127891       0.433426630971       1190.78       200.98548
19.0023752969       0.471736641256       1199.43       4.28229
19.5024378047       0.511911548189       1235.49       1.70300
20.0025003125       0.553843605047       1286.32       104.38563
20.5025628204       0.597395188169       1288.07       4.03147
21.0026253282       0.642397794653       1296.72       6.63606
21.502687836       0.688651533155       1343.91       34.47835
22.0027503438       0.735925173669       1360.12       9.38902
22.5028128516       0.783956813483       1360.57       0.07472
23.0028753594       0.832455205008       1366.58       27.96989
23.5029378672       0.881101777093       1402.56       9.04148
24.003000375       0.929553364851       1475.15       17.42812
24.5030628829       0.977445644536       1489.45       6.72102
25.0031253907       1.02439724996       1552.01       100.82416
25.5031878985       1.07001452609       1636.20       18.15746
26.0032504063       1.11389685429       1659.25       44.54224
26.5033129141       1.15564246337       1664.63       36.13510
27.0033754219       1.19485462125       1805.64       303.24895
27.5034379297       1.23114808534       3035.53       20.09811
28.0035004376       1.26415567542       3073.16       4.76005
28.5035629454       1.29353482266       3088.78       15.31718
29.0036254532       1.31897394155       3151.31       21.33518
29.503687961       1.34019847023       3160.54       7.98572
30.0037504688       1.35697642725       3188.98       10.95234
30.5038129766       1.36912334079       3195.33       3.80072
31.0038754844       1.37650641885       3494.27       1.84726
31.5039379922       1.37904784587       3571.52       5.29862
32.0040005001       1.37672711209       3725.66       72.85715
32.5040630079       1.36958230605       3799.84       62.99112
33.0041255157       1.35771032725
33.5041880235       1.34126600392
34.0042505313       1.32046012955
34.5043130391       1.29555646019
35.0043755469       1.26686774095
35.5044380548       1.23475085511
36.0045005626       1.19960121006
36.5045630704       1.16184649229
37.0046255782       1.12193993659
37.504688086       1.0803532633
38.0047505938       1.03756944117
38.5048131016       0.994075432592
39.0048756095       0.950355072219
39.5049381173       0.906882220575
40.0050006251       0.864114320964
40.5050631329       0.822486471769
41.0051256407       0.782406107775
41.5051881485       0.744248364195
42.0052506563       0.708352176322
42.5053131641       0.675017146949
43.005375672       0.644501193603
43.5054381798       0.617018968729
44.0055006876       0.592741028798
44.5055631954       0.571793713291
45.0056257032       0.554259681864
45.505688211       0.540179047921
46.0057507188       0.529551039327
46.5058132267       0.522336112145
47.0058757345       0.518458440772
47.5059382423       0.517808707679
48.0060007501       0.520247117786
48.5060632579       0.525606566029
49.0061257657       0.533695891701
49.5061882735       0.544303159271
50.0062507813       0.55719891242
50.5063132892       0.572139355534
51.006375797       0.588869424851
51.5064383048       0.607125719334
52.0065008126       0.62663926918
52.5065633204       0.647138127326
53.0066258282       0.668349776269
53.506688336       0.69000334878
54.0067508439       0.711831666648
54.5068133517       0.733573106154
55.0068758595       0.754973302613
55.5069383673       0.775786708919
56.0070008751       0.79577802449
56.5070633829       0.81472351143
57.0071258907       0.832412214032
57.5071883985       0.848647096047
58.0072509064       0.863246107542
58.5073134142       0.876043189728
59.007375922       0.886889222123
59.5074384298       0.895652911934
60.0075009376       0.902221620896
60.5075634454       0.906502120165
61.0076259532       0.908421259573
61.5076884611       0.907926533764
62.0077509689       0.904986524773
62.5078134767       0.899591198598
63.0078759845       0.891752032524
63.5079384923       0.881501950373
64.0080010001       0.868895044659
64.5080635079       0.85400606773
65.0081260158       0.836929678307
65.5081885236       0.817779435323
66.0082510314       0.796686537325
66.5083135392       0.773798312691
67.008376047       0.749276473369
67.5084385548       0.723295152213
68.0085010626       0.696038751212
68.5085635704       0.667699634434
69.0086260783       0.638475705195
69.5086885861       0.608567911508
70.0087510939       0.578177726991
70.5088136017       0.547504656113
71.0088761095       0.516743812724
71.5089386173       0.486083619297
72.0090011251       0.455703671253
72.509063633       0.425772806315
73.0091261408       0.39644741314
73.5091886486       0.367870006802
74.0092511564       0.340168091351
74.5093136642       0.313453321814
75.009376172       0.287820970066
75.5094386798       0.263349691194
76.0095011876       0.240101579596
76.5095636955       0.218122497359
77.0096262033       0.1974426516
77.5096887111       0.178077392642
78.0097512189       0.160028201221
78.5098137267       0.143283830385
79.0098762345       0.127821566436
79.5099387423       0.113608573107
80.0100012502       0.100603284
80.510063758       0.0887568102095
81.0101262658       0.078014332601
81.5101887736       0.0683164515616
82.0102512814       0.0596004707218
82.5103137892       0.0518015952199
83.010376297       0.0448540292443
83.5104388049       0.0386919617526
84.0105013127       0.0332504332774
84.5105638205       0.0284660804725
85.0106263283       0.0242777584445
85.5106888361       0.0206270438838
86.0107513439       0.017458624514
86.5108138517       0.014720582394
87.0108763595       0.0123645801464
87.5109388674       0.0103459602476
88.0110013752       0.00862376814556
88.511063883       0.00716071021084
89.0111263908       0.00592305741849
89.5111888986       0.00488050526711
90.0112514064       0.00400599981987
90.5113139142       0.00327553895543
91.0113764221       0.00266795700052
91.5114389299       0.00216469992775
92.0115014377       0.00174959728486
92.5115639455       0.00140863601332
93.0116264533       0.00112974034254
93.5116889611       0.000902561037395
94.0117514689       0.000718276444965
94.5118139767       0.0005694070454
95.0118764846       0.000449644565435
95.5119389924       0.00035369616402
96.0120015002       0.000277143745087
96.512064008       0.000216318087966
97.0121265158       0.000168187204108
97.5121890236       0.000130258121378
98.0122515314       0.000100491154777
98.5123140393       7.72256357482e-05
99.0123765471       5.91160317718e-05
99.5124390549       4.50773848378e-05
100.012501563       3.42390235125e-05
100.512564071       2.59055512457e-05
101.012626578       1.9524176927e-05
101.512689086       1.46575270193e-05
102.012751594       1.09611573533e-05
102.512814102       8.16506320796e-06
103.01287661       6.05856581842e-06
103.512939117       4.47802980737e-06
104.013001625       3.29693776243e-06
104.513064133       2.41791429417e-06
105.013126641       1.76635187983e-06
105.513189149       1.28534442032e-06
106.013251656       9.31681775545e-07
106.513314164       6.72699845438e-07
107.013376672       4.83816414838e-07
107.51343918       3.46613445095e-07
108.013501688       2.4735228435e-07
108.513564196       1.75829905897e-07
109.013626703       1.24502285151e-07
109.513689211       8.78158809639e-08
110.013751719       6.17003515324e-08
110.513814227       4.3185522186e-08
111.013876735       3.01136009374e-08
111.513939242       2.09240317369e-08
112.01400175       1.44934657846e-08
112.514064258       1.00173583354e-08
113.014126766       6.92286567535e-09
113.514189274       4.80519499165e-09
114.014251781       3.3814905789e-09
114.514314289       2.4578404263e-09
115.014376797       1.9061541132e-09
115.514439305       1.64857531085e-09
116.014501813       1.64781537928e-09
116.514564321       1.90238304676e-09
117.014626828       2.44618535643e-09
117.514689336       3.35242777887e-09
118.014751844       4.7421842021e-09
118.514814352       6.79847697791e-09
119.01487686       9.7872409869e-09
119.514939367       1.40871846733e-08
120.015001875       2.02313514481e-08
120.515064383       2.89641806022e-08
121.015126891       4.131913162e-08
121.515189399       5.8723545542e-08
122.015251906       8.31394625417e-08
122.515314414       1.17251704198e-07
123.015376922       1.64717789844e-07
123.51543943       2.30498338661e-07
124.015501938       3.21291686689e-07
124.515564446       4.46102719653e-07
125.015626953       6.16983613381e-07
125.515689461       8.49993533146e-07
126.015751969       1.16643564347e-06
126.515814477       1.59444330986e-06
127.015876985       2.17100343217e-06
127.515939492       2.94452373266e-06
128.016002       3.97807280878e-06
128.516064508       5.35344709315e-06
129.016127016       7.17624771669e-06
129.516189524       9.58218272632e-06
130.016252032       1.27448461114e-05
130.516314539       1.6885264409e-05
131.016377047       2.22835438216e-05
131.516439555       2.92929950465e-05
132.016502063       3.83571582791e-05
132.516564571       5.00301956251e-05
133.016627078       6.5001160466e-05
133.516689586       8.41226906956e-05
134.016752094       0.000108444702144
134.516814602       0.000139253676321
135.01687711       0.000178118138651
135.516939617       0.000226940904864
136.017002125       0.000288018628984
136.517064633       0.00036410911077
137.017127141       0.000458506707715
137.517189649       0.00057512604115
138.017252157       0.000718593981943
138.517314664       0.00089434964423
139.017377172       0.00110875180155
139.51743968       0.00136919276669
140.017502188       0.00168421734417
140.517564696       0.00206364497507
141.017627203       0.00251869265302
141.517689711       0.00306209560712
142.017752219       0.0037082221343
142.517814727       0.00447317833851
143.017877235       0.00537489791767
143.517939742       0.00643321155807
144.01800225       0.00766988998002
144.518064758       0.00910865426079
145.018127266       0.0107751467795
145.518189774       0.0126968560186
146.018252282       0.0149029885611
146.518314789       0.0174242819697
147.018377297       0.0202927528696
147.518439805       0.023541375492
148.018502313       0.0272036872054
148.518564821       0.0313133191604
149.018627328       0.0359034521118
149.518689836       0.0410061997249
150.018752344       0.0466519242023
150.518814852       0.0528684918189
151.01887736       0.0596804788633
151.518939867       0.0671083414679
152.019002375       0.0751675657644
152.519064883       0.083867817612
153.019127391       0.0932121136895
153.519189899       0.103196037891
154.019252407       0.113807028588
154.519314914       0.12502376329
155.019377422       0.136815667452
155.51943993       0.149142573518
156.019502438       0.16195455473
156.519564946       0.175191955669
157.019627453       0.188785637984
157.519689961       0.202657455283
158.019752469       0.216720965826
158.519814977       0.230882385539
159.019877485       0.245041777142
159.519939992       0.259094464046
160.0200025       0.272932650281
160.520065008       0.286447220415
161.020127516       0.299529686353
161.520190024       0.312074241428
162.020252532       0.323979876485
162.520315039       0.335152508048
163.020377547       0.345507065263
163.520440055       0.3549694804
164.020502563       0.363478527363
164.520565071       0.370987453977
165.020627578       0.377465356855
165.520690086       0.382898252365
166.020752594       0.387289803475
166.520815102       0.390661669989
167.02087761       0.393053458628
167.520940118       0.394522259355
168.021002625       0.395141765003
168.521065133       0.39500098229
169.021127641       0.394202553449
169.521190149       0.392860718538
170.021252657       0.391098958785
170.521315164       0.389047370661
171.021377672       0.386839828592
171.52144018       0.38461100093
172.021502688       0.38249328895
172.521565196       0.380613761908
173.021627703       0.3790911626
173.521690211       0.378033057294
174.021752719       0.377533201337
174.521815227       0.377669187319
175.021877735       0.378500436383
175.521940243       0.380066585353
176.02200275       0.382386313004
176.522065258       0.385456638177
177.022127766       0.389252710894
177.522190274       0.393728105485
178.022252782       0.398815612139
178.522315289       0.404428510841
179.022377797       0.41046229939
179.522440305       0.416796835708
180.022502813       0.423298844064
180.522565321       0.429824725574
181.022627828       0.436223605574
181.522690336       0.442340544524
182.022752844       0.44801983505
182.522815352       0.45310830581
183.02287786       0.457458553064
183.522940368       0.460932023185
184.023002875       0.463401873804
184.523065383       0.464755547691
185.023127891       0.46489700168
185.523190399       0.463748542671
186.023252907       0.461252233709
186.523315414       0.457370845011
187.023377922       0.452088337192
187.52344043       0.445409876506
188.023502938       0.437361394156
188.523565446       0.427988713454
189.023627953       0.41735627923
189.523690461       0.40554553334
190.023752969       0.392652987889
190.523815477       0.378788053911
191.023877985       0.364070687346
191.523940493       0.34862891638
192.024003       0.332596314401
192.524065508       0.316109481149
193.024128016       0.29930559117
193.524190524       0.282320063711
194.024253032       0.265284401786
194.524315539       0.248324240842
195.024378047       0.231557639242
195.524440555       0.21509363429
196.024503063       0.199031078794
196.524565571       0.183457764675
197.024628079       0.168449832065
197.524690586       0.154071454927
198.024753094       0.140374787739
198.524815602       0.127400152284
199.02487811       0.11517643921
199.524940618       0.103721695846
200.025003125       0.0930438697535
200.525065633       0.0831416766508
201.025128141       0.0740055615608
201.525190649       0.0656187232875
202.025253157       0.0579581743936
202.525315664       0.0509958116886
203.025378172       0.0446994756507
203.52544068       0.0390339810843
204.025503188       0.0339621055072
204.525565696       0.0294455261598
205.025628204       0.0254457010245
205.525690711       0.0219246937423
206.025753219       0.0188459467663
206.525815727       0.0161750114315
207.025878235       0.0138802478327
207.525940743       0.0119335114672
208.02600325       0.0103108475102
208.526065758       0.00899321736113
209.026128266       0.00796728571638
209.526190774       0.00722629990297
210.026253282       0.00677109651642
210.526315789       0.00661127351966
211.026378297       0.00676656881101
211.526440805       0.00726848876493
212.026503313       0.00816223225589
212.526565821       0.00950895701789
213.026628329       0.0113884356492
213.526690836       0.0139021478766
214.026753344       0.0171768535356
214.526815852       0.021368686754
215.02687836       0.0266678056605
215.526940868       0.0333036231898
216.027003375       0.0415506328036
216.527065883       0.0517348278302
217.027128391       0.0642406942931
217.527190899       0.0795187342946
218.027253407       0.0980934500864
218.527315914       0.120571687888
219.027378422       0.147651205462
219.52744093       0.180129288814
220.027503438       0.2189112018
220.527565946       0.265018208764
221.027628454       0.319594865894
221.527690961       0.383915233167
222.027753469       0.459387617563
222.527815977       0.547557421588
223.027878485       0.650107641609
223.527940993       0.768856540465
224.0280035       0.905752011095
224.528066008       1.06286215505
225.028128516       1.24236162434
225.528191024       1.44651331943
226.028253532       1.67764510212
226.52831604       1.93812127084
227.028378547       2.23030865816
227.528441055       2.55653734572
228.028503563       2.9190561486
228.528566071       3.31998319779
229.028628579       3.76125214086
229.528691086       4.24455468354
230.028753594       4.7712804021
230.528816102       5.34245496056
231.02887861       5.95867806155
231.528941118       6.620062634
232.029003625       7.32617690886
232.529066133       8.07599114375
233.029128641       8.8678308236
233.529191149       9.69933817637
234.029253657       10.5674437973
234.529316165       11.4683500662
235.029378672       12.3975278656
235.52944118       13.3497278714
236.029503688       14.319007379
236.529566196       15.2987732741
237.029628704       16.2818413439
237.529691211       17.2605116821
238.029753719       18.2266594677
238.529816227       19.1718399197
239.029878735       20.0874057588
239.529941243       20.9646350579
240.03000375       21.7948669634
240.530066258       22.5696424204
241.030128766       23.2808467695
241.530191274       23.9208508976
242.030253782       24.4826475436
242.53031629       24.9599793784
243.030378797       25.3474556074
243.530441305       25.6406540781
244.030503813       25.8362062055
244.530566321       25.9318624581
245.030628829       25.9265366429
245.530691336       25.820327794
246.030753844       25.6145190709
246.530816352       25.3115536955
247.03087886       24.9149885821
247.530941368       24.4294269102
248.031003875       23.8604314479
248.531066383       23.2144209252
249.031128891       22.4985521701
249.531191399       21.7205910425
250.031253907       20.8887754228
250.531316415       20.011673624
251.031378922       19.0980416092
251.53144143       18.1566822978
252.031503938       17.1963100528
252.531566446       16.2254231678
253.031628954       15.2521868196
253.531691461       14.2843285499
254.031753969       13.3290478921
254.531816477       12.3929412919
