#  x                 y             frequency           intensity
0.0       0.00059845010111       31.51       1.39893
0.500062507813       0.000764018745689       54.44       4.84949
1.00012501563       0.000971590386565       68.79       2.10614
1.50018752344       0.00123073777579       95.34       7.82307
2.00025003125       0.00155292679216       160.84       4.79365
2.50031253907       0.00195181912009       180.45       38.96792
3.00037504688       0.00244360660713       212.86       7.71488
3.50043755469       0.00304737679078       304.01       3.25433
4.00050006251       0.00378550800016       325.19       9.46451
4.50056257032       0.004684091131       343.68       97.70427
5.00062507813       0.0057733736581       365.34       9.80040
5.50068758595       0.00708821969203       418.55       9.72531
6.00075009376       0.00866857792025       423.42       1.70222
6.50081260158       0.010559947124       433.70       3.57768
7.00087510939       0.0128138266723       477.85       7.64240
7.5009376172       0.015488137021       494.08       101.85317
8.00100012502       0.0186475928586       518.24       13.00417
8.50106263283       0.0223640092362       578.55       15.94806
9.00112514064       0.0267165188994       635.82       2.16956
9.50118764846       0.0317916772268       659.88       0.74819
10.0012501563       0.0376834298112       724.25       5.79610
10.5013126641       0.0444929169324       738.42       19.89893
11.0013751719       0.052328089112       771.04       4.06302
11.5014376797       0.0613031087629       818.94       13.44332
12.0015001875       0.0715375147663       825.68       134.59946
12.5015626953       0.0831551297652       840.02       95.73575
13.0016252032       0.0962826941285       856.34       47.29581
13.501687711       0.111048215983       878.91       2.09009
14.0017502188       0.127579033439       936.23       14.42862
14.5018127266       0.145999593106       950.34       3.80994
15.0018752344       0.166428958136       955.45       0.11627
15.5019377422       0.188978069151       970.46       12.91206
16.00200025       0.213746792306       1034.88       0.40295
16.5020627578       0.240820800131       1113.64       19.97007
17.0021252657       0.270268342315       1134.04       41.32620
17.5021877735       0.302136974849       1147.37       2.36873
18.0022502813       0.336450326498       1189.79       159.03530
18.5023127891       0.373204990924       1201.58       9.38995
19.0023752969       0.412367640498       1205.27       19.69415
19.5024378047       0.453872463365       1233.11       28.30098
20.0025003125       0.497619028284       1237.49       3.77481
20.5025628204       0.543470681746       1265.73       79.18368
21.0026253282       0.591253578493       1289.68       178.71136
21.502687836       0.640756439731       1296.95       191.90835
22.0027503438       0.691731122775       1350.27       5.41061
22.5028128516       0.743894071756       1367.87       20.72025
23.0028753594       0.796928701445       1385.70       7.77859
23.5029378672       0.850488745501       1427.07       14.97749
24.003000375       0.904202577032       1476.09       20.27043
24.5030628829       0.957678483818       1489.42       7.87054
25.0031253907       1.01051085355       1552.48       89.06964
25.5031878985       1.06228719679       1635.26       20.46631
26.0032504063       1.11259590811       1640.43       44.73378
26.5033129141       1.16103463919       1659.76       48.98618
27.0033754219       1.20721913371       1848.04       185.22129
27.5034379297       1.25079235213       2969.71       46.47582
28.0035004376       1.29143369629       3023.00       53.57567
28.5035629454       1.32886813045       3061.39       18.45959
29.0036254532       1.36287498596       3155.56       17.21935
29.503687961       1.39329623323       3161.59       11.45238
30.0037504688       1.42004400588       3177.03       6.35453
30.5038129766       1.44310716899       3196.94       4.40698
31.0038754844       1.46255673537       3498.45       8.45370
31.5039379922       1.47854995074       3582.79       8.96015
32.0040005001       1.49133289033       3770.46       38.10771
32.5040630079       1.50124143489       3798.64       66.40162
33.0041255157       1.50870052297
33.5041880235       1.51422160794
34.0042505313       1.5183982817
34.5043130391       1.52190006217
35.0043755469       1.52546437702
35.5044380548       1.52988681194
36.0045005626       1.53600972707
36.5045630704       1.54470937955
37.0046255782       1.55688172332
37.504688086       1.57342708851
38.0047505938       1.59523397254
38.5048131016       1.6231622016
39.0048756095       1.65802574573
39.5049381173       1.70057549149
40.0050006251       1.75148229373
40.5050631329       1.81132064083
41.0051256407       1.88055327578
41.5051881485       1.95951711801
42.0052506563       2.04841082675
42.5053131641       2.14728433538
43.005375672       2.25603066745
43.5054381798       2.37438031704
44.0055006876       2.50189844008
44.5055631954       2.63798505763
45.0056257032       2.78187841767
45.505688211       2.93266159932
46.0057507188       3.08927237294
46.5058132267       3.2505162533
47.0058757345       3.41508260189
47.5059382423       3.5815635514
48.0060007501       3.74847544247
48.5060632579       3.91428238264
49.0061257657       4.0774214636
49.5061882735       4.23632910775
50.0062507813       4.38946796174
50.5063132892       4.53535371626
51.006375797       4.67258120943
51.5064383048       4.79984916836
52.0065008126       4.91598296037
52.5065633204       5.0199547628
53.0066258282       5.11090061802
53.506688336       5.18813391654
54.0067508439       5.25115494506
54.5068133517       5.29965624394
55.0068758595       5.33352363751
55.5069383673       5.35283292636
56.0070008751       5.35784235898
56.5070633829       5.34898112637
57.0071258907       5.32683424284
57.5071883985       5.29212428442
58.0072509064       5.24569054971
58.5073134142       5.18846628202
59.007375922       5.12145464475
59.5074384298       5.04570417106
60.0075009376       4.96228441355
60.5075634454       4.87226249993
61.0076259532       4.77668125698
61.5076884611       4.67653949993
62.0077509689       4.57277500002
62.5078134767       4.46625054339
63.0078759845       4.35774338288
63.5079384923       4.24793826605
64.0080010001       4.13742410169
64.5080635079       4.02669420803
65.0081260158       3.91614997322
65.5081885236       3.80610765613
66.0082510314       3.69680796643
66.5083135392       3.58842799019
67.008376047       3.48109497232
67.5084385548       3.37490143142
68.0085010626       3.2699210658
68.5085635704       3.16622491162
69.0086260783       3.06389723286
69.5086885861       2.96305065718
70.0087510939       2.8638401188
70.5088136017       2.76647522595
71.0088761095       2.67123073402
71.5089386173       2.57845487285
72.0090011251       2.48857534441
72.509063633       2.40210287318
73.0091261408       2.31963225366
73.5091886486       2.24184089533
74.0092511564       2.16948491436
74.5093136642       2.10339286265
75.009376172       2.04445721797
75.5094386798       1.9936237852
76.0095011876       1.9518791782
76.5095636955       1.92023656626
77.0096262033       1.89971988016
77.5096887111       1.89134668192
78.0097512189       1.8961099108
78.5098137267       1.91495872839
79.0098762345       1.94877869794
79.5099387423       1.99837154848
80.0100012502       2.06443479385
80.510063758       2.1475414991
81.0101262658       2.24812051222
81.5101887736       2.36643750578
82.0102512814       2.50257719965
82.5103137892       2.6564271598
83.010376297       2.8276635876
83.5104388049       3.01573952533
84.0105013127       3.21987590586
84.5105638205       3.43905586337
85.0106263283       3.67202269719
85.5106888361       3.91728183991
86.0107513439       4.17310712309
86.5108138517       4.4375515594
87.0108763595       4.7084627694
87.5109388674       4.98350307581
88.0110013752       5.26017417109
88.511063883       5.53584613823
89.0111263908       5.80779047416
89.5111888986       6.07321663454
90.0112514064       6.32931149338
90.5113139142       6.57328099475
91.0113764221       6.80239317416
91.5114389299       7.01402164566
92.0115014377       7.20568859486
92.5115639455       7.37510628812
93.0116264533       7.52021610917
93.5116889611       7.63922416559
94.0117514689       7.73063257069
94.5118139767       7.79326559862
95.0118764846       7.82629003084
95.5119389924       7.82922915615
96.0120015002       7.80197004933
96.512064008       7.74476393077
97.0121265158       7.65821959358
97.5121890236       7.54329007065
98.0122515314       7.40125289431
98.5123140393       7.23368446977
99.0123765471       7.04242923519
99.5124390549       6.82956440913
100.012501563       6.59736122887
100.512564071       6.34824365455
101.012626578       6.08474555536
101.512689086       5.80946740197
102.012751594       5.52503346679
102.512814102       5.23405048106
103.01287661       4.93906861849
103.512939117       4.64254557331
104.013001625       4.34681438029
104.513064133       4.05405549054
105.013126641       3.76627347565
105.513189149       3.48527858781
106.013251656       3.212673262
106.513314164       2.94984351053
107.013376672       2.69795503652
107.51343918       2.45795378272
108.013501688       2.23057053937
108.513564196       2.01632916076
109.013626703       1.81555788556
109.513689211       1.62840322147
110.013751719       1.45484583912
110.513814227       1.2947179226
111.013876735       1.14772144239
111.513939242       1.01344684861
112.01400175       0.891391726149
112.514064258       0.780979005443
113.014126766       0.681574380765
113.514189274       0.592502649515
114.014251781       0.513062748496
114.514314289       0.442541324459
115.014376797       0.380224734479
115.514439305       0.325409425387
116.014501813       0.277410689482
116.514564321       0.235569835236
117.014626828       0.199259846267
117.514689336       0.167889629345
118.014751844       0.140906972755
118.514814352       0.117800350405
119.01487686       0.0980997150267
119.514939367       0.0813764265883
120.015001875       0.067242460156
120.515064383       0.0553490318598
121.015126891       0.0453847731084
121.515189399       0.0370735725122
122.015251906       0.0301721928759
122.515314414       0.0244677577404
123.015376922       0.0197751888662
123.51543943       0.0159346632271
124.015501938       0.012809145899
124.515564446       0.0102820439736
125.015626953       0.00825501649892
125.515689461       0.00664596656247
126.015751969       0.00538723404357
126.515814477       0.00442400125337
127.015876985       0.00371291859524
127.515939492       0.00322095341467
128.016002       0.00292446223393
128.516064508       0.00280848443049
129.016127016       0.00286625394976
129.516189524       0.00309892466593
130.016252032       0.00351550433751
130.516314539       0.00413299156761
131.016377047       0.00497670959804
131.516439555       0.00608082997519
132.016502063       0.0074890779708
132.516564571       0.00925560998551
133.016627078       0.0114460508901
133.516689586       0.0141386762773
134.016752094       0.0174257208431
134.516814602       0.021414789564
135.01687711       0.0262303429993
135.516939617       0.0320152219854
136.017002125       0.0389321703113
136.517064633       0.0471653068467
137.017127141       0.0569214912548
137.517189649       0.0684315201569
138.017252157       0.0819510837758
138.517314664       0.0977614070782
139.017377172       0.116169494715
139.51743968       0.137507896135
140.017502188       0.162133906643
140.517564696       0.190428122384
141.017627203       0.222792272871
141.517689711       0.259646264056
142.017752219       0.301424378629
142.517814727       0.348570598392
143.017877235       0.401533036409
143.517939742       0.460757494143
144.01800225       0.526680190774
144.518064758       0.599719747846
145.018127266       0.680268551744
145.518189774       0.768683658237
146.018252282       0.865277446282
146.518314789       0.970308271136
147.018377297       1.08397140778
147.518439805       1.20639061306
148.018502313       1.33761066682
148.518564821       1.47759127647
149.018627328       1.62620274436
149.518689836       1.78322380031
150.018752344       1.94834199212
150.518814852       2.12115700169
151.01887736       2.30118721479
151.518939867       2.48787981483
152.019002375       2.68062459802
152.519064883       2.87877161738
153.019127391       3.08165265783
153.519189899       3.28860642606
154.019252407       3.49900720886
154.519314914       3.71229661488
155.019377422       3.92801787161
155.51943993       4.14585200477
156.019502438       4.36565508642
156.519564946       4.58749560573
157.019627453       4.81169089664
157.519689961       5.03884145608
158.019752469       5.26986190857
158.519814977       5.50600732371
159.019877485       5.74889357616
159.519939992       6.00051045723
160.0200025       6.26322630634
160.520065008       6.5397830315
161.020127516       6.83328053196
161.520190024       7.14714972372
162.020252532       7.48511359768
162.520315039       7.85113600954
163.020377547       8.24935820505
163.520440055       8.68402341912
164.020502563       9.15939024555
164.520565071       9.67963584705
165.020627578       10.2487504537
165.520690086       10.8704249706
166.020752594       11.5479338697
166.520815102       12.2840158678
167.02087761       13.0807551713
167.520940118       13.9394662987
168.021002625       14.8605856463
168.521065133       15.8435730433
169.021127641       16.886826535
169.521190149       17.9876135235
170.021252657       19.1420211922
170.521315164       20.3449288315
171.021377672       21.5900042725
171.52144018       22.869726134
172.021502688       24.175432997
172.521565196       25.4973999615
173.021627703       26.8249423212
173.521690211       28.1465453461
174.021752719       29.4500183931
174.521815227       30.7226708231
175.021877735       31.9515064846
175.521940243       33.1234328856
176.02200275       34.2254806153
176.522065258       35.2450281373
177.022127766       36.170026766
177.522190274       36.9892204776
178.022252782       37.6923552046
178.522315289       38.2703724241
179.022377797       38.7155821772
179.522440305       39.0218111361
180.022502813       39.1845219577
180.522565321       39.2009009099
181.022627828       39.0699116005
181.522690336       38.7923135546
182.022752844       38.3706453434
182.522815352       37.8091729264
183.02287786       37.1138048084
183.522940368       36.2919764897
184.023002875       35.3525074765
184.523065383       34.3054347974
185.023127891       33.1618275096
185.523190399       31.9335870714
186.023252907       30.633238683
186.523315414       29.2737187656
187.023377922       27.8681636479
187.52344043       26.429704283
188.023502938       24.9712714264
188.523565446       23.5054152028
189.023627953       22.0441423801
189.523690461       20.5987739987
190.023752969       19.1798252795
190.523815477       17.7969089991
191.023877985       16.4586627927
191.523940493       15.1727001476
192.024003       13.9455842125
192.524065508       12.7828229822
193.024128016       11.6888839355
193.524190524       10.6672258297
194.024253032       9.72034507523
194.524315539       8.84983394741
195.024378047       8.05644782609
195.524440555       7.34017868548
196.024503063       6.70033217918
196.524565571       6.13560586285
197.024628079       5.64416636047
197.524690586       5.22372359194
198.024753094       4.87160052639
198.524815602       4.58479729162
199.02487811       4.36004883995
199.524940618       4.19387573247
200.025003125       4.08262794356
200.525065633       4.022521896
201.025128141       4.00967120498
201.525190649       4.04011183033
202.025253157       4.10982250608
202.525315664       4.21474143227
203.025378172       4.35078027551
203.52544068       4.51383653385
204.025503188       4.69980528103
204.525565696       4.90459121986
205.025628204       5.12412185052
205.525690711       5.35436240422
206.025753219       5.59133301319
206.525815727       5.83112839333
207.025878235       6.0699401144
207.525940743       6.30408133258
208.02600325       6.53001367009
208.526065758       6.74437575365
209.026128266       6.94401277457
209.526190774       7.12600631336
210.026253282       7.28770358642
210.526315789       7.42674522253
211.026378297       7.54109066651
211.526440805       7.62904033376
212.026503313       7.68925370334
212.526565821       7.72076263411
213.026628329       7.72297931485
213.526690836       7.69569840963
214.026753344       7.63909312792
214.526815852       7.55370512849
215.02687836       7.44042834909
215.526940868       7.30048703458
216.027003375       7.13540840656
216.527065883       6.9469905718
217.027128391       6.73726639988
217.527190899       6.50846420698
218.027253407       6.26296616081
218.527315914       6.00326536752
219.027378422       5.73192261626
219.52744093       5.45152373941
220.027503438       5.16463850026
220.527565946       4.87378184572
221.027628454       4.58137826556
221.527690961       4.28972988382
222.027753469       4.00098877959
222.527815977       3.71713389675
223.027878485       3.43995276191
223.527940993       3.17102809108
224.0280035       2.91172923341
224.528066008       2.66320827874
225.028128516       2.42640054815
225.528191024       2.20202909537
226.028253532       1.99061277431
226.52831604       1.7924773744
227.028378547       1.60776929121
227.528441055       1.43647118484
228.028503563       1.27841908039
228.528566071       1.13332038349
229.028628579       1.00077231515
229.528691086       0.880280313236
230.028753594       0.771275999433
230.528816102       0.673134367652
231.02887861       0.585189910765
231.528941118       0.506751464051
232.029003625       0.437115604253
232.529066133       0.37557850066
233.029128641       0.321446167548
233.529191149       0.274043114737
234.029253657       0.232719433932
234.529316165       0.196856392676
235.029378672       0.165870634855
235.52944118       0.139217107017
236.029503688       0.116390843593
236.529566196       0.0969277519967
237.029628704       0.0804045412106
237.529691211       0.0664379355652
238.029753719       0.0546833098047
238.529816227       0.0448328729862
239.029878735       0.0366135180446
239.529941243       0.0297844416964
240.03000375       0.0241346263802
240.530066258       0.019480262706
241.030128766       0.0156621778671
241.530191274       0.0125433230359
242.030253782       0.0100063611966
242.53031629       0.0079513863662
243.030378797       0.00629379584202
243.530441305       0.00496232904764
244.030503813       0.00389727973287
244.530566321       0.00304888267583
245.030628829       0.00237587156254
245.530691336       0.00184420128228
246.030753844       0.0014259253631
246.530816352       0.00109821755912
247.03087886       0.000842525569059
247.530941368       0.000643844392821
248.031003875       0.000490096810656
248.531066383       0.000371608794428
249.031128891       0.000280668243012
249.531191399       0.000211156195918
250.031253907       0.000158240554887
250.531316415       0.000118123278507
251.031378922       8.78329668525e-05
251.53144143       6.50556887349e-05
252.031503938       4.79977989286e-05
252.531566446       3.52753299927e-05
253.031628954       2.58253122469e-05
253.531691461       1.88350705747e-05
254.031753969       1.36861663179e-05
254.531816477       9.91019794287e-06
255.031878985       7.15414892666e-06
255.531941493       5.15338041645e-06
256.032004001       3.7107155735e-06
256.532066508       2.68035851614e-06
257.032129016       1.95563995054e-06
257.532191524       1.45979035434e-06
258.032254032       1.13911612081e-06
258.53231654       9.58100183775e-07
259.032379047       8.96071722012e-07
259.532441555       9.45194570105e-07
260.032504063       1.10961553485e-06
260.532566571       1.40569618313e-06
261.032629079       1.86332879115e-06
