#  x                 y             frequency           intensity
0.0       4.38884274001e-05       35.85       1.00577
0.500062507813       5.79698699172e-05       47.51       2.37263
1.00012501563       7.62715246062e-05       65.49       1.62611
1.50018752344       9.99610410568e-05       86.52       0.18835
2.00025003125       0.000130499197766       164.88       1.55691
2.50031253907       0.000169704819311       208.39       11.31987
3.00037504688       0.000219831719134       240.93       62.75529
3.50043755469       0.000283659297579       288.20       6.77128
4.00050006251       0.000364598499171       323.56       3.23748
4.50056257032       0.00046681487133       338.25       97.61829
5.00062507813       0.000595370457141       376.50       9.24884
5.50068758595       0.00075638618444       418.33       4.57453
6.00075009376       0.000957226268593       424.04       1.89881
6.50081260158       0.0012067059126       435.10       8.11768
7.00087510939       0.00151532325135       478.81       16.71006
7.5009376172       0.00189551603341       508.38       17.21376
8.00100012502       0.00236194295237       553.14       18.84412
8.50106263283       0.00293178882059       601.71       59.21965
9.00112514064       0.00362509191722       639.50       54.11544
9.50118764846       0.00446509083813       660.09       0.09057
10.0012501563       0.0054785870355       723.58       4.38028
10.5013126641       0.00669631797157       742.87       34.23467
11.0013751719       0.00815333444827       760.87       19.41896
11.5014376797       0.00988937424302       816.05       18.30417
12.0015001875       0.0119492227237       838.29       10.16793
12.5015626953       0.0143830496852       851.67       16.83309
13.0016252032       0.0172467103064       874.12       15.24766
13.501687711       0.0206019969476       896.86       91.57832
14.0017502188       0.0245168275612       929.73       16.01762
14.5018127266       0.0290653558709       943.03       5.54769
15.0018752344       0.0343279882598       969.18       1.41669
15.5019377422       0.0403912925847       1004.37       28.93351
16.00200025       0.0473477849723       1036.96       0.59773
16.5020627578       0.0552955821273       1119.85       184.04177
17.0021252657       0.0643379088168       1127.20       71.90345
17.5021877735       0.0745824530367       1142.73       26.61116
18.0022502813       0.0861405648824       1180.44       34.27460
18.5023127891       0.0991262993125       1191.64       141.64279
19.0023752969       0.113655307722       1200.57       5.20225
19.5024378047       0.129843588421       1230.35       3.77050
20.0025003125       0.147806111564       1246.66       5.90729
20.5025628204       0.167655339652       1288.59       102.18780
21.0026253282       0.189499670095       1296.46       1.71534
21.502687836       0.213441831388       1338.36       9.25566
22.0027503438       0.239577268716       1357.36       3.08446
22.5028128516       0.267992558246       1368.21       29.94702
23.0028753594       0.298763891437       1380.71       2.19766
23.5029378672       0.331955671415       1403.95       5.57540
24.003000375       0.367619262393       1476.52       15.50579
24.5030628829       0.40579193029       1486.04       6.89415
25.0031253907       0.446496007894       1552.11       95.62308
25.5031878985       0.489738311311       1634.70       13.55080
26.0032504063       0.535509825952       1658.84       43.10865
26.5033129141       0.583785670357       1669.77       34.57577
27.0033754219       0.634525334924       1811.54       249.64037
27.5034379297       0.687673180592       3031.73       15.68486
28.0035004376       0.743159170263       3062.91       27.00333
28.5035629454       0.800899793757       3105.82       8.19631
29.0036254532       0.86079913613       3152.08       17.41433
29.503687961       0.922750029804       3170.80       7.18366
30.0037504688       0.98663522392       3178.96       6.32423
30.5038129766       1.05232850011       3196.34       4.68743
31.0038754844       1.1196956631       3485.60       1.94862
31.5039379922       1.18859533763       3554.24       6.99556
32.0040005001       1.25887951       3720.09       57.21091
32.5040630079       1.33039376364       3799.34       64.34714
33.0041255157       1.40297717307
33.5041880235       1.47646183858
34.0042505313       1.55067206534
34.5043130391       1.62542321343
35.0043755469       1.70052026959
35.5044380548       1.77575621488
36.0045005626       1.85091028514
36.5045630704       1.92574624059
37.0046255782       2.00001077665
37.504688086       2.07343221835
38.0047505938       2.14571964555
38.5048131016       2.21656259324
39.0048756095       2.28563146185
39.5049381173       2.35257875525
40.0050006251       2.41704123942
40.5050631329       2.47864308439
41.0051256407       2.53700001467
41.5051881485       2.59172445304
42.0052506563       2.64243159842
42.5053131641       2.68874633374
43.005375672       2.73031081615
43.5054381798       2.76679256097
44.0055006876       2.79789279461
44.5055631954       2.82335482299
45.0056257032       2.84297214084
45.505688211       2.85659599619
46.0057507188       2.86414212408
46.5058132267       2.86559637366
47.0058757345       2.86101897494
47.5059382423       2.85054722349
48.0060007501       2.8343964036
48.5060632579       2.81285882085
49.0061257657       2.78630087233
49.5061882735       2.75515814446
50.0062507813       2.7199285925
50.5063132892       2.68116392049
51.006375797       2.63945934174
51.5064383048       2.59544195728
52.0065008126       2.54975804017
52.5065633204       2.50305955445
53.0066258282       2.45599026896
53.506688336       2.40917184541
54.0067508439       2.36319028729
54.5068133517       2.31858313043
55.0068758595       2.2758277383
55.5069383673       2.23533103479
56.0070008751       2.19742096694
56.5070633829       2.16233993973
57.0071258907       2.13024040731
57.5071883985       2.10118274171
58.0072509064       2.07513543305
58.5073134142       2.05197760699
59.007375922       2.03150377807
59.5074384298       2.01343069311
60.0075009376       1.99740606044
60.5075634454       1.98301890821
61.0076259532       1.96981127217
61.5076884611       1.95729087952
62.0077509689       1.94494447267
62.5078134767       1.93225140507
63.0078759845       1.91869714107
63.5079384923       1.90378630263
64.0080010001       1.88705492669
64.5080635079       1.86808162836
65.0081260158       1.84649740371
65.5081885236       1.82199385237
66.0082510314       1.79432965098
66.5083135392       1.76333516316
67.008376047       1.72891512792
67.5084385548       1.69104942383
68.0085010626       1.64979196044
68.5085635704       1.60526779821
69.0086260783       1.55766864322
69.5086885861       1.50724690161
70.0087510939       1.45430851014
70.5088136017       1.39920478245
71.0088761095       1.34232352616
71.5089386173       1.28407969251
72.0090011251       1.22490581923
72.509063633       1.1652425185
73.0091261408       1.10552924611
73.5091886486       1.04619556659
74.0092511564       0.987653102309
74.5093136642       0.930288324594
75.009376172       0.874456312167
75.5094386798       0.82047556812
76.0095011876       0.768623952575
76.5095636955       0.71913575484
77.0096262033       0.672199897546
77.5096887111       0.62795923646
78.0097512189       0.586510894298
78.5098137267       0.54790754522
79.0098762345       0.512159549175
79.5099387423       0.479237821971
80.0100012502       0.449077317914
80.510063758       0.42158099687
81.0101262658       0.396624146507
81.5101887736       0.374058932801
82.0102512814       0.353719057307
82.5103137892       0.335424407732
83.010376297       0.318985598456
83.5104388049       0.304208309404
84.0105013127       0.290897344607
84.5105638205       0.278860345341
85.0106263283       0.267911106646
85.5106888361       0.257872459795
86.0107513439       0.24857869664
86.5108138517       0.239877524438
87.0108763595       0.231631551486
87.5109388674       0.223719314541
88.0110013752       0.216035868384
88.511063883       0.208492965966
89.0111263908       0.201018864236
89.5111888986       0.193557796023
90.0112514064       0.186069152205
90.5113139142       0.17852642091
91.0113764221       0.170915931688
91.5114389299       0.16323545257
92.0115014377       0.155492686822
92.5115639455       0.147703714022
93.0116264533       0.13989141714
93.5116889611       0.132083933522
94.0117514689       0.124313163394
94.5118139767       0.116613364761
95.0118764846       0.109019858553
95.5119389924       0.101567862738
96.0120015002       0.0942914689916
96.512064008       0.087222770535
97.0121265158       0.080391145051
97.5121890236       0.0738226922359
98.0122515314       0.0675398216673
98.5123140393       0.0615609832984
99.0123765471       0.0559005300895
99.5124390549       0.0505687000728
100.012501563       0.0455717035299
100.512564071       0.0409118999199
101.012626578       0.0365880487017
101.512689086       0.0325956182095
102.012751594       0.0289271371935
102.512814102       0.0255725744767
103.01287661       0.0225197333308
103.512939117       0.0197546485584
104.013001625       0.0172619758225
104.513064133       0.0150253644159
105.013126641       0.0130278063431
105.513189149       0.0112519562452
106.013251656       0.00968041828345
106.513314164       0.00829599756648
107.013376672       0.00708191503148
107.51343918       0.00602198585214
108.013501688       0.00510076242653
108.513564196       0.00430364379759
109.013626703       0.00361695397785
109.513689211       0.00302799209567
110.013751719       0.00252505756791
110.513814227       0.00209745364821
111.013876735       0.00173547272116
111.513939242       0.00143036662992
112.01400175       0.00117430515944
112.514064258       0.000960325568048
113.014126766       0.000782275787196
113.514189274       0.00063475360752
114.014251781       0.000513043855488
114.514314289       0.000413055250544
115.014376797       0.000331258328381
115.514439305       0.000264625529622
116.014501813       0.000210574290789
116.514564321       0.000166913739685
117.014626828       0.000131795392534
117.514689336       0.00010366807602
118.014751844       8.12371534441e-05
118.514814352       6.34280191036e-05
119.01487686       4.93537368397e-05
119.514939367       3.82866350355e-05
120.015001875       2.96336286569e-05
120.515064383       2.29150165699e-05
121.015126891       1.77464968802e-05
121.515189399       1.38241521425e-05
122.015251906       1.09121780419e-05
122.515314414       8.83316196386e-06
123.015376922       7.46076056411e-06
123.51543943       6.71467723562e-06
124.015501938       6.55790088005e-06
124.515564446       6.9962366071e-06
125.015626953       8.08023723981e-06
125.515689461       9.90973238858e-06
126.015751969       1.26412501656e-05
126.515814477       1.64987362407e-05
127.015876985       2.17880967769e-05
127.515939492       2.89162265777e-05
128.016002       3.84153319766e-05
128.516064508       5.09735195851e-05
129.016127016       6.74727962779e-05
129.516189524       8.90358111474e-05
130.016252032       0.000117082863837
130.516314539       0.000153400901537
131.016377047       0.000200226423162
131.516439555       0.000260344396115
132.016502063       0.000337205458657
132.516564571       0.000435063817089
133.016627078       0.000559138336919
133.516689586       0.000715799353883
134.016752094       0.000912783674435
134.516814602       0.00115944007449
135.01687711       0.00146700731636
135.516939617       0.00184892626241
136.017002125       0.00232118704576
136.517064633       0.00290271143896
137.017127141       0.0036157695211
137.517189649       0.00448642846339
138.017252157       0.0055450297239
138.517314664       0.00682668915873
139.017377172       0.00837181252806
139.51743968       0.0102266166203
140.017502188       0.0124436437698
140.517564696       0.0150822549549
141.017627203       0.0182090839982
141.517689711       0.021898432744
142.017752219       0.0262325845517
142.517814727       0.0313020111575
143.017877235       0.0372054460415
143.517939742       0.0440497960596
144.01800225       0.0519498624078
144.518064758       0.0610278421433
145.018127266       0.071412582657
145.518189774       0.0832385638001
146.018252282       0.0966445859541
146.518314789       0.111772147269
147.018377297       0.128763499641
147.518439805       0.147759380725
148.018502313       0.168896428379
148.518564821       0.192304294168
149.018627328       0.218102483878
149.518689836       0.246396964962
150.018752344       0.277276593237
150.518814852       0.310809423528
151.01887736       0.347038980813
151.518939867       0.385980579323
152.019002375       0.427617786389
152.519064883       0.471899135148
153.019127391       0.518735194929
153.519189899       0.56799610983
154.019252407       0.619509714271
154.519314914       0.673060328769
155.019377422       0.728388329875
155.51943993       0.785190574776
156.019502438       0.843121744005
156.519564946       0.901796644933
157.019627453       0.960793495001
157.519689961       1.01965817739
158.019752469       1.07790943391
158.519814977       1.13504493121
159.019877485       1.19054810778
159.519939992       1.24389568189
160.0200025       1.29456567575
160.520065008       1.34204578904
161.020127516       1.38584193788
161.520190024       1.42548676258
162.020252532       1.46054790085
162.520315039       1.49063582282
163.020377547       1.51541102996
163.520440055       1.53459043243
164.020502563       1.54795273783
164.520565071       1.55534270862
165.020627578       1.55667417438
165.520690086       1.55193171806
166.020752594       1.54117099165
166.520815102       1.52451765353
167.02087761       1.50216495821
167.520940118       1.47437006571
168.021002625       1.44144917249
168.521065133       1.40377159707
169.021127641       1.36175298031
169.521190149       1.3158477819
170.021252657       1.26654127011
170.521315164       1.2143412116
171.021377672       1.15976947101
171.52144018       1.10335372707
172.021502688       1.045619503
172.521565196       0.987082694803
173.021627703       0.928242762281
173.521690211       0.869576725216
174.021752719       0.811534082136
174.521815227       0.754532742256
175.021877735       0.698956033769
175.521940243       0.645150824465
176.02200275       0.593426764535
176.522065258       0.544056637159
177.022127766       0.497277780526
177.522190274       0.453294525777
178.022252782       0.412281579185
178.522315289       0.374388263623
179.022377797       0.33974352403
179.522440305       0.308461593705
180.022502813       0.280648212579
180.522565321       0.256407284484
181.022627828       0.235847857384
181.522690336       0.219091307967
182.022752844       0.206278609294
182.522815352       0.197577557015
183.02287786       0.193189825437
183.522940368       0.193357719423
184.023002875       0.198370481478
184.523065383       0.208570005646
185.023127891       0.224355801329
185.523190399       0.246189041312
186.023252907       0.274595519967
186.523315414       0.310167340614
187.023377922       0.353563146494
187.52344043       0.405506708913
188.023502938       0.466783690062
188.523565446       0.538236408069
189.023627953       0.620756449172
189.523690461       0.715274997533
190.023752969       0.822750787916
190.523815477       0.944155630803
191.023877985       1.08045751355
191.523940493       1.23260134466
192.024003       1.40148748022
192.524065508       1.58794825102
193.024128016       1.79272279325
193.524190524       2.01643057366
194.024253032       2.25954408726
194.524315539       2.52236129059
195.024378047       2.80497841044
195.524440555       3.10726383513
196.024503063       3.42883384721
196.524565571       3.76903099037
197.024628079       4.12690587512
197.524690586       4.50120321536
198.024753094       4.89035284838
198.524815602       5.29246642318
199.02487811       5.70534034624
199.524940618       6.12646545045
200.025003125       6.55304370409
200.525065633       6.98201210615
201.025128141       7.41007372591
201.525190649       7.8337356446
202.025253157       8.24935335123
202.525315664       8.65318094103
203.025378172       9.04142627014
203.52544068       9.41031004299
204.025503188       9.75612765575
204.525565696       10.0753124976
205.025628204       10.3644993277
205.525690711       10.6205863029
206.025753219       10.8407942366
206.525815727       11.0227217153
207.025878235       11.1643948022
207.525940743       11.2643101925
208.02600325       11.3214708698
208.526065758       11.3354135294
209.026128266       11.3062272738
209.526190774       11.2345633503
210.026253282       11.1216359676
210.526315789       10.9692144955
211.026378297       10.7796076088
211.526440805       10.5556401661
212.026503313       10.3006238155
212.526565821       10.0183224786
213.026628329       9.71291397626
213.526690836       9.38894911684
214.026753344       9.0513095731
214.526815852       8.70516581762
215.02687836       8.35593627784
215.526940868       8.00924870865
216.027003375       7.67090457078
216.527065883       7.34684695427
217.027128391       7.04313230625
217.527190899       6.76590592338
218.027253407       6.52138086175
218.527315914       6.31581961471
219.027378422       6.15551762395
219.52744093       6.04678743475
220.027503438       5.99594209432
220.527565946       6.0092762349
221.027628454       6.09304318993
221.527690961       6.25342647148
222.027753469       6.49650399619
222.527815977       6.82820358879
223.027878485       7.25424851896
223.527940993       7.78009213586
224.0280035       8.41084105116
224.528066008       9.15116677708
225.028128516       10.0052062392
225.528191024       10.9764521405
226.028253532       12.067634736
226.52831604       13.2805971631
227.028378547       14.6161670482
227.528441055       16.0740276368
228.028503563       17.6525921657
228.528566071       19.3488855739
229.028628579       21.1584379199
229.528691086       23.0751940091
230.028753594       25.0914437322
230.528816102       27.1977774415
231.02887861       29.3830703621
231.528941118       31.6344995271
232.029003625       33.9375960599
232.529066133       36.2763348097
233.029128641       38.6332623909
233.529191149       40.9896636238
234.029253657       43.3257652355
234.529316165       45.6209745115
235.029378672       47.8541494163
235.52944118       50.0038955728
236.029503688       52.0488844565
236.529566196       53.9681862472
237.029628704       55.7416100433
237.529691211       57.3500436086
238.029753719       58.7757845121
238.529816227       60.0028544691
239.029878735       61.0172888942
239.529941243       61.8073941429
240.03000375       62.3639656328
240.530066258       62.680460986
241.030128766       62.7531234755
241.530191274       62.5810523764
242.030253782       62.1662182481
242.53031629       61.5134226748
243.030378797       60.6302035081
243.530441305       59.5266881332
244.030503813       58.2153986748
244.530566321       56.7110143118
245.030628829       55.0300969499
245.530691336       53.1907873669
246.030753844       51.2124795718
246.530816352       49.1154814948
247.03087886       46.9206702374
247.530941368       44.6491499706
248.031003875       42.3219201861
248.531066383       39.9595614022
249.031128891       37.5819446353
249.531191399       35.2079700009
250.031253907       32.8553387533
250.531316415       30.5403619392
251.031378922       28.2778076853
251.53144143       26.0807879939
252.031503938       23.9606848218
252.531566446       21.9271142094
253.031628954       19.9879263261
253.531691461       18.1492385284
254.031753969       16.4154979158
254.531816477       14.7895694038
255.031878985       13.272845035
255.531941493       11.8653701015
256.032004001       10.5659816517
256.532066508       9.37245508228
257.032129016       8.2816547608
257.532191524       7.28968495909
258.032254032       6.3920377882
258.53231654       5.58373528282
