#  x                 y             frequency           intensity
0.0       0.00125228421435       28.86       0.83882
0.500062507813       0.00156598154719       50.71       0.73106
1.00012501563       0.00195062374583       54.35       1.82005
1.50018752344       0.00242026828288       83.05       0.37161
2.00025003125       0.00299127714566       147.04       0.47540
2.50031253907       0.0036825863756       232.26       16.31740
3.00037504688       0.00451598388523       242.28       9.33958
3.50043755469       0.00551639028192       276.53       19.36719
4.00050006251       0.00671213610989       296.96       5.13058
4.50056257032       0.00813522752848       330.61       1.39579
5.00062507813       0.00982159101223       333.99       99.21895
5.50068758595       0.0118112862343       379.27       0.76213
6.00075009376       0.0141486749349       420.56       1.09573
6.50081260158       0.0168825323502       431.36       8.29987
7.00087510939       0.0200660867535       492.41       4.41137
7.5009376172       0.0237569719315       535.05       22.02360
8.00100012502       0.0280170770573       554.66       9.77884
8.50106263283       0.0329122785259       594.23       70.75934
9.00112514064       0.0385120389703       599.75       44.68544
9.50118764846       0.0448888599457       660.13       0.19209
10.0012501563       0.0521175767357       731.00       3.83673
10.5013126641       0.0602744864339       762.82       100.24157
11.0013751719       0.0694363039161       789.35       30.84365
11.5014376797       0.0796789445473       797.89       1.82950
12.0015001875       0.0910761374183       816.48       21.61166
12.5015626953       0.103697878524       837.28       129.75660
13.0016252032       0.117608739457       852.11       29.77153
13.501687711       0.132866053765       868.51       23.65722
14.0017502188       0.149518009921       923.80       0.90678
14.5018127266       0.167601686633       949.62       16.63408
15.0018752344       0.187141072804       963.35       8.43943
15.5019377422       0.20814512046       1033.70       51.09120
16.00200025       0.230605884202       1035.99       4.25046
16.5020627578       0.25449680489       1074.94       59.15315
17.0021252657       0.279771198002       1123.47       35.14586
17.5021877735       0.30636100828       1142.58       96.01295
18.0022502813       0.334175891566       1166.63       2.17139
18.5023127891       0.363102681977       1192.34       166.82674
19.0023752969       0.393005297801       1199.71       3.00199
19.5024378047       0.42372513244       1233.40       0.58493
20.0025003125       0.455081967719       1247.20       46.85653
20.5025628204       0.486875435814       1288.29       107.42042
21.0026253282       0.51888704329       1322.28       9.87103
21.502687836       0.550882756586       1342.00       2.20678
22.0027503438       0.582616133047       1348.76       17.84455
22.5028128516       0.613831965819       1363.00       10.47520
23.0028753594       0.644270395037       1369.59       20.55654
23.5029378672       0.673671422319       1419.25       13.51663
24.003000375       0.701779751125       1475.18       16.89672
24.5030628829       0.728349862606       1485.36       3.40147
25.0031253907       0.753151225653       1552.19       100.34108
25.5031878985       0.775973531315       1635.97       11.87741
26.0032504063       0.796631836052       1650.76       26.14627
26.5033129141       0.814971495533       1660.41       46.36196
27.0033754219       0.830872771141       1829.79       256.45179
27.5034379297       0.844254994983       3028.15       35.50309
28.0035004376       0.855080185861       3070.24       2.98841
28.5035629454       0.863356018295       3091.70       17.00515
29.0036254532       0.869138058793       3150.01       17.05978
29.503687961       0.872531197911       3167.60       18.24042
30.0037504688       0.87369022263       3169.27       3.29937
30.5038129766       0.872819490821       3196.28       4.94841
31.0038754844       0.870171687402       3485.97       1.91298
31.5039379922       0.866045659844       3566.43       3.11431
32.0040005001       0.860783348322       3728.04       65.57882
32.5040630079       0.854765842728       3799.91       65.00817
33.0041255157       0.848408614506
33.5041880235       0.842155985619
34.0042505313       0.836474909702
34.5043130391       0.831848151528
35.0043755469       0.828766960257
35.5044380548       0.827723339716
36.0045005626       0.829202025177
36.5045630704       0.833672281035
37.0046255782       0.841579637533
37.504688086       0.853337687459
38.0047505938       0.869320065647
38.5048131016       0.889852735214
39.0048756095       0.915206704853
39.5049381173       0.945591300965
40.0050006251       0.981148116967
40.5050631329       1.02194575937
41.0051256407       1.06797550606
41.5051881485       1.11914798608
42.0052506563       1.17529098217
42.5053131641       1.23614844628
43.005375672       1.30138080509
43.5054381798       1.37056661564
44.0055006876       1.44320561178
44.5055631954       1.5187231592
45.0056257032       1.59647611133
45.505688211       1.6757600301
46.0057507188       1.75581770561
46.5058132267       1.83584887741
47.0058757345       1.91502102843
47.5059382423       1.99248109168
48.0060007501       2.06736788039
48.5060632579       2.13882502633
49.0061257657       2.20601418812
49.5061882735       2.26812827464
50.0062507813       2.32440441697
50.5063132892       2.37413641806
51.006375797       2.41668641216
51.5064383048       2.4514954765
52.0065008126       2.47809295615
52.5065633204       2.49610428833
53.0066258282       2.5052571451
53.506688336       2.50538575172
54.0067508439       2.49643328113
54.5068133517       2.47845227203
55.0068758595       2.45160306658
55.5069383673       2.41615031323
56.0070008751       2.37245762812
56.5070633829       2.32098055381
57.0071258907       2.26225799492
57.5071883985       2.1969023458
58.0072509064       2.12558855359
58.5073134142       2.04904238102
59.007375922       1.96802814619
59.5074384298       1.88333622028
60.0075009376       1.79577056066
60.5075634454       1.70613654411
61.0076259532       1.61522934582
61.5076884611       1.52382308375
62.0077509689       1.43266091699
62.5078134767       1.34244625128
63.0078759845       1.25383516777
63.5079384923       1.16743015138
64.0080010001       1.08377515723
64.5080635079       1.00335201577
65.0081260158       0.926578143128
65.5081885236       0.853805492221
66.0082510314       0.785320653874
66.5083135392       0.721345996063
67.008376047       0.662041713523
67.5084385548       0.607508649774
68.0085010626       0.557791748838
68.5085635704       0.512883994233
69.0086260783       0.47273069786
69.5086885861       0.437234010329
70.0087510939       0.406257536607
70.5088136017       0.379630955535
71.0088761095       0.35715455813
71.5089386173       0.338603636721
72.0090011251       0.323732674079
72.509063633       0.312279298123
73.0091261408       0.303967982824
73.5091886486       0.298513489155
74.0092511564       0.295624050885
74.5093136642       0.295004318547
75.009376172       0.296358080791
75.5094386798       0.29939078572
76.0095011876       0.303811885711
76.5095636955       0.309337028005
77.0096262033       0.315690110247
77.5096887111       0.322605215613
78.0097512189       0.329828436602
78.5098137267       0.337119590488
79.0098762345       0.344253823149
79.5099387423       0.351023092158
80.0100012502       0.357237514786
80.510063758       0.362726562435
81.0101262658       0.367340080156
81.5101887736       0.370949108493
82.0102512814       0.373446485057
82.5103137892       0.374747204924
83.010376297       0.374788522157
83.5104388049       0.373529779234
84.0105013127       0.370951956794
84.5105638205       0.367056942579
85.0106263283       0.361866525425
85.5106888361       0.355421127384
86.0107513439       0.347778294134
86.5108138517       0.33901097051
87.0108763595       0.329205593926
87.5109388674       0.318460043412
88.0110013752       0.3068814858
88.511063883       0.29458416305
89.0111263908       0.281687165808
89.5111888986       0.268312237885
90.0112514064       0.254581654674
90.5113139142       0.240616215468
91.0113764221       0.22653338549
91.5114389299       0.212445618366
92.0115014377       0.198458883921
92.5115639455       0.18467141984
93.0116264533       0.171172719186
93.5116889611       0.158042759153
94.0117514689       0.145351470062
94.5118139767       0.133158437686
95.0118764846       0.121512826608
95.5119389924       0.110453507727
96.0120015002       0.100009369249
96.512064008       0.09019978762
97.0121265158       0.0810352329393
97.5121890236       0.0725179823223
98.0122515314       0.0646429145441
98.5123140393       0.0573983598942
99.0123765471       0.0507669805
99.5124390549       0.0447266582619
100.012501563       0.0392513699029
100.512564071       0.0343120313143
101.012626578       0.0298772962739
101.512689086       0.0259142975911
102.012751594       0.0223893216975
102.512814102       0.019268410549
103.01287661       0.0165178873651
103.512939117       0.0141048051427
104.013001625       0.0119973189887
104.513064133       0.0101649851117
105.013126641       0.00857899076524
105.513189149       0.00721232055993
106.013251656       0.00603986536655
106.513314164       0.00503848054007
107.013376672       0.00418700043909
107.51343918       0.00346621622841
108.013501688       0.00285882377412
108.513564196       0.00234934810924
109.013626703       0.00192405050119
109.513689211       0.00157082362656
110.013751719       0.00127907978589
110.513814227       0.00103963650056
111.013876735       0.000844603248764
111.513939242       0.000687272538047
112.01400175       0.000562017992027
112.514064258       0.000464201659213
113.014126766       0.000390092337629
113.514189274       0.000336796352427
114.014251781       0.000302201922918
114.514314289       0.000284938005916
115.014376797       0.000284348296632
115.514439305       0.000300480897273
116.014501813       0.000334094016036
116.514564321       0.000386677923082
117.014626828       0.000460493252554
117.514689336       0.000558625587401
118.014751844       0.000685056083745
118.514814352       0.000844747671199
119.01487686       0.00104374609368
119.514939367       0.00128929472205
120.015001875       0.00158996166792
120.515064383       0.00195577725281
121.015126891       0.00239837933656
121.515189399       0.00293116338776
122.015251906       0.00356943349262
122.515314414       0.00433054976232
123.015376922       0.00523406682807
123.51543943       0.00630185733485
124.015501938       0.00755821358713
124.515564446       0.00902991979982
125.015626953       0.0107462868057
125.515689461       0.0127391406125
126.015751969       0.0150427559348
126.515814477       0.0176937258019
127.015876985       0.0207307586054
127.515939492       0.0241943945483
128.016002       0.0281266344334
128.516064508       0.0325704751051
129.016127016       0.0375693476609
129.516189524       0.0431664567826
130.016252032       0.0494040221775
130.516314539       0.056322426151
131.016377047       0.0639592746831
131.516439555       0.0723483829903
132.016502063       0.0815187003093
132.516564571       0.0914931924371
133.016627078       0.102287704251
133.516689586       0.113909827874
134.016752094       0.126357805174
134.516814602       0.13961949574
135.01687711       0.153671443196
135.516939617       0.16847807353
136.017002125       0.183991058951
136.517064633       0.200148879484
137.017127141       0.216876612031
137.517189649       0.234085972939
138.017252157       0.251675635282
138.517314664       0.269531836023
139.017377172       0.287529281313
139.51743968       0.305532350349
140.017502188       0.323396589853
140.517564696       0.340970482503
141.017627203       0.358097463859
141.517689711       0.37461815386
142.017752219       0.390372761023
142.517814727       0.405203610481
143.017877235       0.418957741205
143.517939742       0.431489513416
144.01800225       0.442663164551
144.518064758       0.452355251382
145.018127266       0.460456917019
145.518189774       0.466875924677
146.018252282       0.47153840511
146.518314789       0.474390271446
147.018377297       0.475398263526
147.518439805       0.474550593565
148.018502313       0.471857175605
148.518564821       0.467349432511
149.018627328       0.461079685774
149.518689836       0.45312014468
150.018752344       0.44356152215
150.518814852       0.432511314353
151.01887736       0.420091789688
151.518939867       0.406437739714
152.019002375       0.39169404979
152.519064883       0.376013150487
153.019127391       0.359552412171
153.519189899       0.342471544518
154.019252407       0.32493006026
154.519314914       0.307084858254
155.019377422       0.289087975294
155.51943993       0.271084549163
156.019502438       0.253211027586
156.519564946       0.235593649276
157.019627453       0.218347214503
157.519689961       0.201574153881
158.019752469       0.185363895632
158.519814977       0.169792523753
159.019877485       0.15492271244
159.519939992       0.140803916074
160.0200025       0.127472789079
160.520065008       0.114953806212
161.020127516       0.103260051226
161.520190024       0.0923941404663
162.020252532       0.0823492477061
162.520315039       0.0731101972288
163.020377547       0.0646545938547
163.520440055       0.0569539609735
164.020502563       0.0499748606383
164.520565071       0.0436799731839
165.020627578       0.0380291175085
165.520690086       0.0329801969461
166.020752594       0.0284900594248
166.520815102       0.024515264224
167.02087761       0.0210127510252
167.520940118       0.0179404100017
168.021002625       0.0152575543707
168.521065133       0.0129252990928
169.021127641       0.0109068512393
169.521190149       0.00916771895203
170.021252657       0.0076758469242
170.521315164       0.00640168694489
171.021377672       0.0053182123323
171.52144018       0.00440088506129
172.021502688       0.00362758412581
172.521565196       0.00297850321217
173.021627703       0.00243602514407
173.521690211       0.00198457983928
174.021752719       0.00161049173327
174.521815227       0.00130182181214
175.021877735       0.00104820858695
175.521940243       0.000840711560066
176.02200275       0.000671659999053
176.522065258       0.000534509161038
177.022127766       0.000423705508428
177.522190274       0.000334561930794
178.022252782       0.00026314353916
178.522315289       0.000206164226089
179.022377797       0.000160893884132
179.522440305       0.000125075940785
180.022502813       9.68546935388e-05
180.522565321       7.47118066071e-05
181.022627828       5.74112541182e-05
181.522690336       4.39519556524e-05
182.022752844       3.35273422033e-05
182.522815352       2.5491107713e-05
183.02287786       1.93284378435e-05
183.522940368       1.4632059017e-05
184.023002875       1.1082513314e-05
184.523065383       8.43213580696e-06
185.023127891       6.49228852975e-06
185.523190399       5.12348864053e-06
186.023252907       4.22815747681e-06
186.523315414       3.7458130689e-06
187.023377922       3.65063314705e-06
187.52344043       3.95143155916e-06
188.023502938       4.69422208593e-06
188.523565446       5.96769468866e-06
189.023627953       7.9121060953e-06
189.523690461       1.07322962829e-05
190.023752969       1.47157929603e-05
190.523815477       2.02572668963e-05
191.023877985       2.78909623495e-05
191.523940493       3.83331605467e-05
192.024003       5.25372527256e-05
192.524065508       7.17646160837e-05
193.024128016       9.76752148651e-05
193.524190524       0.000132442703502
194.024253032       0.000178899802181
194.524315539       0.000240720858733
195.024378047       0.000322649812883
195.524440555       0.000430783243909
196.024503063       0.000572919809113
196.524565571       0.000758989158732
197.024628079       0.00100157532357
197.524690586       0.00131655158274
198.024753094       0.00172384588336
198.524815602       0.00224835793758
199.02487811       0.00292105107913
199.524940618       0.00378024371575
200.025003125       0.00487312663269
200.525065633       0.00625753332959
201.025128141       0.00800399082749
201.525190649       0.0101980777573
202.025253157       0.012943114811
202.525315664       0.0163632095574
203.025378172       0.0206066729515
203.52544068       0.0258498183375
204.025503188       0.0323011451441
204.525565696       0.040205898571
205.025628204       0.0498509832189
205.525690711       0.0615701927234
206.025753219       0.0757496990049
206.525815727       0.0928337238481
207.025878235       0.1133302924
207.525940743       0.137816943209
208.02600325       0.166946243173
208.526065758       0.201450928915
209.026128266       0.242148469636
209.526190774       0.289944821403
210.026253282       0.345837120463
210.526315789       0.410915044857
211.026378297       0.486360560891
211.526440805       0.573445765432
212.026503313       0.673528538094
212.526565821       0.788045730625
213.026628329       0.918503645475
213.526690836       1.06646559272
214.026753344       1.23353636478
214.526815852       1.42134353208
215.02687836       1.63151553965
215.526940868       1.86565667349
216.027003375       2.12531906523
216.527065883       2.41197201156
217.027128391       2.72696899822
217.527190899       3.07151293379
218.027253407       3.44662021159
218.527315914       3.85308432413
219.027378422       4.29143984956
219.52744093       4.76192770736
220.027503438       5.26446263746
220.527565946       5.79860388794
221.027628454       6.3635300976
221.527690961       6.95801932868
222.027753469       7.5804351392
222.527815977       8.22871948379
223.027878485       8.90039309715
223.527940993       9.59256384763
224.0280035       10.3019433546
224.528066008       11.0248719464
225.028128516       11.7573518034
225.528191024       12.4950878918
226.028253532       13.2335360548
226.52831604       13.9679573986
227.028378547       14.6934779041
227.528441055       15.4051520125
228.028503563       16.0980287911
228.528566071       16.7672191846
229.028628579       17.4079628032
229.528691086       18.0156927025
230.028753594       18.5860966584
230.528816102       19.1151735454
231.02887861       19.5992835805
231.528941118       20.0351913844
232.029003625       20.4201010446
232.529066133       20.7516826167
233.029128641       21.0280897675
233.529191149       21.2479685394
234.029253657       21.4104574772
234.529316165       21.5151796077
235.029378672       21.562226979
235.52944118       21.5521386509
236.029503688       21.4858731671
236.529566196       21.3647766309
237.029628704       21.1905475524
237.529691211       20.965199629
238.029753719       20.69102357
238.529816227       20.3705489874
239.029878735       20.006507247
239.529941243       19.6017960258
240.03000375       19.1594461515
240.530066258       18.6825911283
241.030128766       18.1744395762
241.530191274       17.6382506521
242.030253782       17.077312375
242.53031629       16.4949226589
243.030378797       15.8943727649
243.530441305       15.2789328264
244.030503813       14.651839071
244.530566321       14.0162823683
245.030628829       13.3753977627
245.530691336       12.7322547027
246.030753844       12.0898477535
246.530816352       11.4510876603
247.03087886       10.8187927181
247.530941368       10.1956804923
248.031003875       9.58436001008
248.531066383       8.98732460986
249.031128891       8.40694568145
249.531191399       7.84546755679
250.031253907       7.30500381305
250.531316415       6.78753522957
251.031378922       6.29490959615
251.53144143       5.82884350571
252.031503938       5.39092618218
252.531566446       4.98262529868
253.031628954       4.60529463614
253.531691461       4.2601833246
254.031753969       3.94844630279
254.531816477       3.6711555322
255.031878985       3.42931141555
255.531941493       3.22385379957
256.032004001       3.05567189389
