#  x                 y             frequency           intensity
0.0       0.0014801313551       28.17       0.72904
0.500062507813       0.00184095312946       50.66       2.25436
1.00012501563       0.00228080609956       52.82       0.14276
1.50018752344       0.00281473277912       82.49       0.12066
2.00025003125       0.00346010404109       148.37       0.18693
2.50031253907       0.00423686220616       232.34       14.16047
3.00037504688       0.00516776472348       241.77       11.09519
3.50043755469       0.00627862226878       279.62       17.40889
4.00050006251       0.00759852385877       296.71       6.91793
4.50056257032       0.0091600403356       332.80       13.46468
5.00062507813       0.0109993963555       335.78       88.81872
5.50068758595       0.0131565998743       379.63       0.65164
6.00075009376       0.0156755171214       421.19       1.53229
6.50081260158       0.0186038802579       431.64       7.16268
7.00087510939       0.021993214404       492.05       3.71771
7.5009376172       0.0258986705574       535.23       22.32455
8.00100012502       0.0303787512063       554.85       10.54986
8.50106263283       0.0354949162134       594.33       74.92976
9.00112514064       0.0413110578986       600.31       41.04087
9.50118764846       0.0478928362149       660.15       0.39228
10.0012501563       0.0553068675399       732.08       2.93259
10.5013126641       0.0636197638996       764.02       97.13848
11.0013751719       0.0728970234033       789.30       30.12051
11.5014376797       0.0832017772424       798.99       1.93256
12.0015001875       0.0945934037388       816.41       11.25357
12.5015626953       0.107126025498       836.91       138.37413
13.0016252032       0.120846911595       852.67       32.33057
13.501687711       0.135794812744       868.40       24.45508
14.0017502188       0.151998263316       929.84       6.05290
14.5018127266       0.169473889738       952.08       4.44216
15.0018752344       0.188224769909       959.48       24.31404
15.5019377422       0.208238892549       1033.01       33.71861
16.00200025       0.229487768722       1036.33       7.93103
16.5020627578       0.251925249688       1074.31       59.36499
17.0021252657       0.275486605769       1122.56       33.98134
17.5021877735       0.300087919675       1142.21       100.08159
18.0022502813       0.325625844726       1166.50       4.96754
18.5023127891       0.351977773454       1191.06       182.25869
19.0023752969       0.379002455273       1199.15       2.73813
19.5024378047       0.406541093175       1233.22       1.87602
20.0025003125       0.434418939035       1246.53       39.03283
20.5025628204       0.462447395203       1288.73       102.37064
21.0026253282       0.490426616904       1322.73       10.68435
21.502687836       0.518148595981       1341.92       2.55345
22.0027503438       0.545400692004       1347.69       18.09416
22.5028128516       0.571969562235       1362.91       7.33675
23.0028753594       0.597645427817       1368.65       21.91970
23.5029378672       0.622226600307       1417.95       11.98840
24.003000375       0.645524180795       1475.49       16.22452
24.5030628829       0.667366833692       1487.70       3.55246
25.0031253907       0.687605529269       1551.98       99.73923
25.5031878985       0.706118143508       1635.56       13.62085
26.0032504063       0.722813800888       1650.45       26.13091
26.5033129141       0.737636845753       1660.18       46.12560
27.0033754219       0.750570330685       1829.99       257.17588
27.5034379297       0.761638916048       3029.63       34.78585
28.0035004376       0.770911083264       3070.58       3.37595
28.5035629454       0.778500575397       3091.93       16.33856
29.0036254532       0.784566991845       3151.71       18.68991
29.503687961       0.789315479187       3159.85       10.64126
30.0037504688       0.792995477084       3174.54       9.47895
30.5038129766       0.795898496205       3196.19       4.82108
31.0038754844       0.798354924125       3486.42       1.90699
31.5039379922       0.800729874586       3567.01       3.15068
32.0040005001       0.803418115117       3728.62       64.43418
32.5040630079       0.806838127408       3799.76       64.03578
33.0041255157       0.81142537376
33.5041880235       0.817624861072
34.0042505313       0.825883110982
34.5043130391       0.836639660644
35.0043755469       0.85031823305
35.5044380548       0.867317728482
36.0045005626       0.888003199467
36.5045630704       0.912696980125
37.0046255782       0.941670146884
37.504688086       0.975134490845
38.0047505938       1.01323518225
38.5048131016       1.0560443043
39.0048756095       1.10355542675
39.5049381173       1.15567937859
40.0050006251       1.2122413644
40.5050631329       1.27297954926
41.0051256407       1.33754521362
41.5051881485       1.4055045517
42.0052506563       1.47634215516
42.5053131641       1.54946618895
43.005375672       1.62421522807
43.5054381798       1.69986668471
44.0055006876       1.77564671448
44.5055631954       1.85074145012
45.0056257032       1.92430937275
45.505688211       1.9954945946
46.0057507188       2.06344079588
46.5058132267       2.12730553241
47.0058757345       2.18627461131
47.5059382423       2.23957622047
48.0060007501       2.2864944947
48.5060632579       2.32638220698
49.0061257657       2.35867228868
49.5061882735       2.38288790655
50.0062507813       2.39865085708
50.5063132892       2.40568807885
51.006375797       2.40383613044
51.5064383048       2.39304353344
52.0065008126       2.37337093486
52.5065633204       2.34498910048
53.0066258282       2.30817480687
53.506688336       2.2633047539
54.0067508439       2.21084766997
54.5068133517       2.15135482632
55.0068758595       2.0854492141
55.5069383673       2.01381366694
56.0070008751       1.93717823125
56.5070633829       1.85630709699
57.0071258907       1.771985402
57.5071883985       1.68500621418
58.0072509064       1.59615797799
58.5073134142       1.50621268662
59.007375922       1.41591500858
59.5074384298       1.32597256037
60.0075009376       1.23704747567
60.5075634454       1.14974937806
61.0076259532       1.06462982047
61.5076884611       0.98217821165
62.0077509689       0.902819209217
62.5078134767       0.826911521701
63.0078759845       0.754748029507
63.5079384923       0.686557107313
64.0080010001       0.622505008923
64.5080635079       0.562699160112
65.0081260158       0.507192195547
65.5081885236       0.455986572298
66.0082510314       0.409039594264
66.5083135392       0.36626868857
67.008376047       0.327556785801
67.5084385548       0.292757670248
68.0085010626       0.261701183078
68.5085635704       0.234198179892
69.0086260783       0.210045163535
69.5086885861       0.189028532583
70.0087510939       0.170928404951
70.5088136017       0.155521993936
71.0088761095       0.142586530311
71.5089386173       0.131901738315
72.0090011251       0.123251885504
72.509063633       0.116427436016
73.0091261408       0.111226344104
73.5091886486       0.107455029612
74.0092511564       0.104929079698
74.5093136642       0.103473721712
75.009376172       0.102924110861
75.5094386798       0.103125473623
76.0095011876       0.103933143878
76.5095636955       0.105212523935
77.0096262033       0.106838997205
77.5096887111       0.108697813599
78.0097512189       0.11068396302
78.5098137267       0.112702046874
79.0098762345       0.114666152488
79.5099387423       0.116499730951
80.0100012502       0.118135475169
80.510063758       0.11951519213
81.0101262658       0.120589661329
81.5101887736       0.12131847019
82.0102512814       0.121669817019
82.5103137892       0.121620272445
83.010376297       0.12115449145
83.5104388049       0.120264869753
84.0105013127       0.118951140403
84.5105638205       0.117219908845
85.0106263283       0.115084127254
85.5106888361       0.112562511482
86.0107513439       0.109678906439
86.5108138517       0.106461607918
87.0108763595       0.102942650807
87.5109388674       0.0991570751146
88.0110013752       0.0951421823258
88.511063883       0.0909367951416
89.0111263908       0.0865805337861
89.5111888986       0.0821131216527
90.0112514064       0.0775737322503
90.5113139142       0.0730003881859
91.0113764221       0.0684294213831
91.5114389299       0.0638950019373
92.0115014377       0.05942874104
92.5115639455       0.0550593713482
93.0116264533       0.0508125061017
93.5116889611       0.0467104762924
94.0117514689       0.0427722433149
94.5118139767       0.0390133828495
95.0118764846       0.0354461342876
95.5119389924       0.0320795088323
96.0120015002       0.0289194485263
96.512064008       0.0259690278706
97.0121265158       0.0232286894032
97.5121890236       0.0206965045853
98.0122515314       0.0183684515789
98.5123140393       0.0162387019474
99.0123765471       0.0142999089506
99.5124390549       0.0125434908807
100.012501563       0.0109599037698
100.512564071       0.00953889874018
101.012626578       0.00826976024058
101.512689086       0.00714152236441
102.012751594       0.00614316136872
102.512814102       0.00526376336356
103.01287661       0.00449266691229
103.512939117       0.00381958095616
104.013001625       0.00323467904334
104.513064133       0.002728671301
105.013126641       0.00229285593935
105.513189149       0.00191915232408
106.013251656       0.00160011780602
106.513314164       0.00132895056381
107.013376672       0.00109948070934
107.51343918       0.000906151838038
108.013501688       0.000743995090307
108.513564196       0.000608597638136
109.013626703       0.000496067334365
109.513689211       0.000402995071071
110.013751719       0.000326416198025
110.513814227       0.000263772159442
111.013876735       0.000212873323958
111.513939242       0.000171863813653
112.01400175       0.000139188986529
112.514064258       0.000113566095343
113.014126766       9.39585349419e-05
113.514189274       7.95540003733e-05
114.014251781       6.97468078656e-05
114.514314289       6.41245787187e-05
115.014376797       6.24594497007e-05
115.514439305       6.4703949848e-05
116.014501813       7.09916692463e-05
116.514564321       8.16428367188e-05
117.014626828       9.71749164299e-05
117.514689336       0.000118318324059
118.014751844       0.00014603734718
118.514814352       0.000181556327475
119.01487686       0.000226391120259
119.514939367       0.000282385785351
120.015001875       0.000351754378999
120.515064383       0.000437127605938
121.015126891       0.000541603951295
121.515189399       0.000668804742017
122.015251906       0.000822932386348
122.515314414       0.00100883080811
123.015376922       0.00123204683259
123.51543943       0.00149889099668
124.015501938       0.00181649595354
124.515564446       0.00219287033019
125.015626953       0.0026369455848
125.515689461       0.00315861311257
126.015751969       0.00376874857954
126.515814477       0.00447922023885
127.015876985       0.00530287782311
127.515939492       0.00625351852727
128.016002       0.00734582662016
128.516064508       0.0085952833661
129.016127016       0.0100180442199
129.516189524       0.0116307806924
130.016252032       0.01345048488
130.516314539       0.0154942354163
131.016377047       0.0177789245374
131.516439555       0.0203209470425
132.016502063       0.0231358531696
132.516564571       0.0262379687605
133.016627078       0.0296399875324
133.516689586       0.0333525417618
134.016752094       0.0373837591697
134.516814602       0.0417388152216
135.01687711       0.0464194913629
135.516939617       0.0514237508251
136.017002125       0.0567453445154
136.517064633       0.0623734600612
137.017127141       0.0682924272787
137.517189649       0.074481493117
138.017252157       0.080914678465
138.517314664       0.0875607280707
139.017377172       0.094383163217
139.51743968       0.101340444728
140.017502188       0.108386251394
140.517564696       0.115469876028
141.017627203       0.122536738253
141.517689711       0.1295290097
142.017752219       0.136386343917
142.517814727       0.14304669981
143.017877235       0.149447244186
143.517939742       0.155525315953
144.01800225       0.161219431924
144.518064758       0.1664703121
145.018127266       0.171221900781
145.518189774       0.175422359101
146.018252282       0.179025004508
146.518314789       0.181989173431
147.018377297       0.184280984877
147.518439805       0.185873984909
148.018502313       0.186749654879
148.518564821       0.186897769759
149.018627328       0.186316596873
149.518689836       0.185012929638
150.018752344       0.183001955384
150.518814852       0.180306960861
151.01887736       0.176958883407
151.518939867       0.172995719876
152.019002375       0.168461809118
152.519064883       0.163407006939
153.019127391       0.157885774998
153.519189899       0.151956206877
154.019252407       0.145679015596
154.519314914       0.139116507118
155.019377422       0.13233156387
155.51943993       0.125386661115
156.019502438       0.11834293712
156.519564946       0.111259335702
157.019627453       0.10419183683
157.519689961       0.0971927877953
158.019752469       0.090310344105
158.519814977       0.0835880257535
159.019877485       0.0770643911559
159.519939992       0.0707728277631
160.0200025       0.0647414553936
160.520065008       0.0589931356696
161.020127516       0.0535455786999
161.520190024       0.0484115363543
162.020252532       0.0435990701472
162.520315039       0.0391118808918
163.020377547       0.0349496868937
163.520440055       0.0311086374828
164.020502563       0.0275817491052
164.520565071       0.0243593519497
165.020627578       0.0214295361089
165.520690086       0.0187785875139
166.020752594       0.0163914052644
166.520815102       0.0142518934416
167.02087761       0.0123433219867
167.520940118       0.0106486526913
168.021002625       0.00915082774222
168.521065133       0.00783301955308
169.021127641       0.00667884176265
169.521190149       0.00567252228368
170.021252657       0.00479904011405
170.521315164       0.00404422828824
171.021377672       0.00339484584354
171.52144018       0.00283862201676
172.021502688       0.00236427608258
172.521565196       0.00196151631306
173.021627703       0.00162102149529
173.521690211       0.00133440831096
174.021752719       0.00109418767692
174.521815227       0.00089371288769
175.021877735       0.00072712210717
175.521940243       0.000589277443215
176.02200275       0.00047570251795
176.522065258       0.000382520131253
177.022127766       0.000306391312897
177.522190274       0.000244456777906
178.022252782       0.000194281544349
178.522315289       0.000153803246381
179.022377797       0.000121284479135
179.522440305       9.52693463774e-05
180.022502813       7.45442456452e-05
180.522565321       5.81028173207e-05
181.022627828       4.5114901331e-05
181.522690336       3.48992854756e-05
182.022752844       2.68999899041e-05
182.522815352       2.06658103564e-05
183.02287786       1.58328358455e-05
183.522940368       1.21096622463e-05
184.023002875       9.26503981889e-06
184.523065383       7.11771857125e-06
185.023127891       5.52828954586e-06
185.523190399       4.39286215542e-06
186.023252907       3.63846772123e-06
186.523315414       3.22013814332e-06
187.023377922       3.11967758794e-06
187.52344043       3.34622637036e-06
188.023502938       3.93881277261e-06
188.523565446       4.97120413895e-06
189.023627953       6.55950791107e-06
189.523690461       8.87314193403e-06
190.023752969       1.21499980381e-05
190.523815477       1.67168712847e-05
191.023877985       2.30165281283e-05
191.523940493       3.16431498847e-05
192.024003       4.33883240523e-05
192.524065508       5.93002766955e-05
193.024128016       8.0759656258e-05
193.524190524       0.000109575904898
194.024253032       0.000148109099303
194.524315539       0.000199423119342
195.024378047       0.000267477118029
195.524440555       0.000357363525039
196.024503063       0.000475602218511
196.524565571       0.000630502039981
197.024628079       0.000832602490455
197.524690586       0.00109521020719
198.024753094       0.00143504664338
198.524815602       0.0018730252049
199.02487811       0.00243517787001
199.524940618       0.00315375294278
200.025003125       0.00406850695895
200.525065633       0.00522821474598
201.025128141       0.00669242208332
201.525190649       0.00853346514441
202.025253157       0.010838779735
202.525315664       0.0137135210697
203.025378172       0.0172835112342
203.52544068       0.0216985263505
204.025503188       0.0271359285875
204.525565696       0.0338046393615
205.025628204       0.0419494391908
205.525690711       0.0518555666221
206.025753219       0.0638535733952
206.525815727       0.0783243756243
207.025878235       0.0957044214157
207.525940743       0.116490874299
208.02600325       0.141246689559
208.526065758       0.170605437572
209.026128266       0.205275705354
209.526190774       0.246044885517
210.026253282       0.293782141815
210.526315789       0.349440323536
211.026378297       0.414056588391
211.526440805       0.488751486618
212.026503313       0.57472625896
212.526565821       0.673258109319
213.026628329       0.785693230237
213.526690836       0.913437386936
214.026753344       1.05794390394
214.526815852       1.22069894769
215.02687836       1.40320405881
215.526940868       1.60695595819
216.027003375       1.83342373062
216.527065883       2.08402357656
217.027128391       2.36009141467
217.527190899       2.66285371175
218.027253407       2.99339701022
218.527315914       3.35263671153
219.027378422       3.74128575429
219.52744093       4.1598238936
220.027503438       4.60846833928
220.527565946       5.08714654292
221.027628454       5.59547193204
221.527690961       6.13272337367
222.027753469       6.69782910638
222.527815977       7.28935580957
223.027878485       7.90550338173
223.527940993       8.54410587793
224.0280035       9.2026389129
224.528066008       9.87823367523
225.028128516       10.5676975245
225.528191024       11.2675409632
226.028253532       11.9740105953
226.52831604       12.6831275117
227.028378547       13.3907303825
227.528441055       14.0925224003
228.028503563       14.7841211054
228.528566071       15.4611100462
229.028628579       16.1190911804
229.528691086       16.7537369171
230.028753594       17.3608407291
230.528816102       17.9363653282
231.02887861       18.4764874988
231.528941118       18.977638809
232.029003625       19.4365415701
232.529066133       19.8502395816
233.029128641       20.2161233706
233.529191149       20.53194981
234.029253657       20.7958561651
234.529316165       21.0063687711
235.029378672       21.1624066711
235.52944118       21.2632806528
236.029503688       21.3086881922
236.529566196       21.298704861
237.029628704       21.2337727615
237.529691211       21.1146865412
238.029753719       20.942577493
238.529816227       20.7188961832
239.029878735       20.4453939728
239.529941243       20.1241037053
240.03000375       19.7573197468
240.530066258       19.3475774755
241.030128766       18.8976322422
241.530191274       18.4104377629
242.030253782       17.8891238615
242.53031629       17.3369734609
243.030378797       16.7573987227
243.530441305       16.1539162615
244.030503813       15.5301214017
244.530566321       14.8896615083
245.030628829       14.2362084969
245.530691336       13.5734307071
246.030753844       12.9049644104
246.530816352       12.2343853009
247.03087886       11.5651803887
247.530941368       10.900720775
248.031003875       10.2442358246
248.531066383       9.59878927394
249.031128891       8.96725780793
249.531191399       8.35231261432
250.031253907       7.75640437442
250.531316415       7.18175208171
251.031378922       6.63033599141
251.53144143       6.10389490265
252.031503938       5.6039278615
252.531566446       5.1317002538
253.031628954       4.68825413445
253.531691461       4.27442251984
254.031753969       3.89084725626
254.531816477       3.53799997202
255.031878985       3.21620552952
