#  x                 y             frequency           intensity
0.0       0.000745212607876       28.00       0.34067
0.500062507813       0.000925647316301       57.53       1.46638
1.00012501563       0.00114528615869       65.49       0.54551
1.50018752344       0.00141151530413       93.69       0.57405
2.00025003125       0.00173284726003       159.07       1.44683
2.50031253907       0.00211903480654       198.55       30.40340
3.00037504688       0.00258118427437       218.44       14.59665
3.50043755469       0.00313186508231       300.87       2.69457
4.00050006251       0.00378521187078       320.95       0.94613
4.50056257032       0.00455701498513       337.25       99.57648
5.00062507813       0.00546479449871       366.49       5.16120
5.50068758595       0.00652785244727       417.99       3.28065
6.00075009376       0.00776729750214       423.22       1.68583
6.50081260158       0.00920603597261       434.71       4.80388
7.00087510939       0.0108687228319       478.15       14.46593
7.5009376172       0.0127816664421       513.82       28.42555
8.00100012502       0.0149726808442       562.20       17.25946
8.50106263283       0.017470879917       595.42       58.50197
9.00112514064       0.0203064084108       649.17       29.11117
9.50118764846       0.0235101058657       660.48       1.54851
10.0012501563       0.0271131007237       722.68       6.34976
10.5013126641       0.031146333561       745.20       55.11983
11.0013751719       0.0356400102714       765.41       14.93331
11.5014376797       0.0406229882199       816.18       17.18252
12.0015001875       0.0461221007987       823.03       184.35572
12.5015626953       0.0521614284143       837.42       61.28694
13.0016252032       0.0587615266386       855.94       36.59380
13.501687711       0.065938624982       879.05       1.09604
14.0017502188       0.0737038123947       931.45       6.85038
14.5018127266       0.0820622280739       946.62       0.27315
15.0018752344       0.0910122783176       951.70       4.14588
15.5019377422       0.100544901924       980.32       19.01250
16.00200025       0.110642907864       1036.05       0.43310
16.5020627578       0.121280409538       1103.57       32.16199
17.0021252657       0.132422379823       1128.46       212.58704
17.5021877735       0.144024350163       1140.81       38.37192
18.0022502813       0.156032275227       1189.79       155.98363
18.5023127891       0.16838258203       1199.88       10.64142
19.0023752969       0.18100241896       1203.86       31.15421
19.5024378047       0.193810115939       1227.94       13.20130
20.0025003125       0.206715862024       1238.94       4.93763
20.5025628204       0.219622601255       1270.58       4.11224
21.0026253282       0.232427141687       1289.09       104.94829
21.502687836       0.245021466439       1321.15       10.37740
22.0027503438       0.257294229454       1351.36       7.11071
22.5028128516       0.269132412804       1367.52       23.22356
23.0028753594       0.280423116876       1382.91       7.73010
23.5029378672       0.291055450017       1440.30       12.33032
24.003000375       0.300922480274       1475.85       20.07070
24.5030628829       0.309923208996       1490.79       6.54469
25.0031253907       0.317964524407       1552.23       91.41186
25.5031878985       0.324963092853       1635.01       15.26589
26.0032504063       0.330847146431       1640.62       46.76004
26.5033129141       0.335558127972       1660.04       45.17206
27.0033754219       0.339052157997       1819.13       228.82190
27.5034379297       0.341301292949       3029.02       9.03362
28.0035004376       0.342294549805       3041.32       48.31160
28.5035629454       0.342038678621       3080.95       13.97909
29.0036254532       0.340558671634       3152.35       17.06669
29.503687961       0.33789800473       3165.94       13.02416
30.0037504688       0.334118614315       3174.22       9.51716
30.5038129766       0.329300619381       3196.23       4.76950
31.0038754844       0.323541804698       3499.83       3.98704
31.5039379922       0.316956886289       3583.26       6.30057
32.0040005001       0.309676584364       3726.55       64.68520
32.5040630079       0.301846531669       3799.61       64.21842
33.0041255157       0.293626046472
33.5041880235       0.285186799275
34.0042505313       0.276711400703
34.5043130391       0.268391935079
35.0043755469       0.260428460039
35.5044380548       0.253027487481
36.0045005626       0.246400455381
36.5045630704       0.24076219395
37.0046255782       0.236329383534
37.504688086       0.233318996047
38.0047505938       0.23194670678
38.5048131016       0.232425259673
39.0048756095       0.234962766705
39.5049381173       0.239760921328
40.0050006251       0.24701310694
40.5050631329       0.256902384363
41.0051256407       0.269599347219
41.5051881485       0.285259840835
42.0052506563       0.304022548666
42.5053131641       0.326006459968
43.005375672       0.351308243175
43.5054381798       0.379999560657
44.0055006876       0.412124371843
44.5055631954       0.447696282462
45.0056257032       0.486696007335
45.505688211       0.529069022233
46.0057507188       0.574723486227
46.5058132267       0.623528519279
47.0058757345       0.675312920103
47.5059382423       0.729864406427
48.0060007501       0.786929453414
48.5060632579       0.846213796238
49.0061257657       0.907383649791
49.5061882735       0.97006768248
50.0062507813       1.03385976249
50.5063132892       1.09832247438
51.006375797       1.16299138199
51.5064383048       1.22737999126
52.0065008126       1.29098534447
52.5065633204       1.35329415629
53.0066258282       1.41378938326
53.506688336       1.47195710163
54.0067508439       1.52729355581
54.5068133517       1.57931223074
55.0068758595       1.62755079675
55.5069383673       1.67157777566
56.0070008751       1.7109987817
56.5070633829       1.74546219996
57.0071258907       1.77466417874
57.5071883985       1.79835282971
58.0072509064       1.81633154998
58.5073134142       1.82846140334
59.007375922       1.8346625224
59.5074384298       1.83491451858
60.0075009376       1.82925591178
60.5075634454       1.81778261596
61.0076259532       1.80064553858
61.5076884611       1.77804737183
62.0077509689       1.75023867038
62.5078134767       1.71751332292
63.0078759845       1.68020353494
63.5079384923       1.63867444515
64.0080010001       1.59331850009
64.5080635079       1.54454970932
65.0081260158       1.4927978988
65.5081885236       1.43850307152
66.0082510314       1.38210997459
66.5083135392       1.32406295902
67.008376047       1.26480120524
67.5084385548       1.20475437264
68.0085010626       1.14433871681
68.5085635704       1.08395370346
69.0086260783       1.02397913404
69.5086885861       0.964772785274
70.0087510939       0.906668552416
70.5088136017       0.849975076172
71.0088761095       0.794974823795
71.5089386173       0.741923587674
72.0090011251       0.691050358854
72.509063633       0.642557528606
73.0091261408       0.596621368432
73.5091886486       0.553392737453
74.0092511564       0.512997966077
74.5093136642       0.475539865988
75.009376172       0.441098818765
75.5094386798       0.409733898703
76.0095011876       0.381483989643
76.5095636955       0.356368860617
77.0096262033       0.334390170865
77.5096887111       0.315532381132
78.0097512189       0.299763554972
78.5098137267       0.287036040935
79.0098762345       0.277287033845
79.5099387423       0.270439020714
80.0100012502       0.26640012394
80.510063758       0.265064361123
81.0101262658       0.266311846929
81.5101887736       0.270008967581
82.0102512814       0.276008562682
82.5103137892       0.284150151927
83.010376297       0.294260245592
83.5104388049       0.306152777535
84.0105013127       0.319629697546
84.5105638205       0.334481756361
85.0106263283       0.35048951147
85.5106888361       0.367424575114
86.0107513439       0.385051117827
86.5108138517       0.403127631718
87.0108763595       0.421408947695
87.5109388674       0.439648490457
88.0110013752       0.457600744623
88.511063883       0.475023895237
89.0111263908       0.491682596632
89.5111888986       0.507350815432
90.0112514064       0.521814686949
90.5113139142       0.534875319465
91.0113764221       0.54635147833
91.5114389299       0.556082081477
92.0115014377       0.563928440055
92.5115639455       0.569776182281
93.0116264533       0.573536805328
93.5116889611       0.575148808794
94.0117514689       0.574578373755
94.5118139767       0.57181956334
95.0118764846       0.566894033561
95.5119389924       0.559850256511
96.0120015002       0.550762271408
96.512064008       0.539727991844
97.0121265158       0.526867109589
97.5121890236       0.512318645891
98.0122515314       0.496238210128
98.5123140393       0.478795032553
99.0123765471       0.460168842558
99.5124390549       0.44054666624
100.012501563       0.420119617085
100.512564071       0.399079751311
101.012626578       0.377617055073
101.512689086       0.355916624478
102.012751594       0.334156091523
102.512814102       0.312503340031
103.01287661       0.291114545682
103.512939117       0.270132563859
104.013001625       0.249685678486
104.513064133       0.229886714802
105.013126641       0.210832509334
105.513189149       0.192603721598
106.013251656       0.175264964335
106.513314164       0.158865222773
107.013376672       0.143438528376
107.51343918       0.129004849035
108.013501688       0.11557115555
108.513564196       0.103132623529
109.013626703       0.0916739304011
109.513689211       0.0811706089117
110.013751719       0.0715904211086
110.513814227       0.0628947202541
111.013876735       0.0550397720744
111.513939242       0.0479780111335
112.01400175       0.0416592126747
112.514064258       0.0360315648561
113.014126766       0.0310426307555
113.514189274       0.0266401937076
114.014251781       0.0227729833662
114.514314289       0.0193912832713
115.014376797       0.016447423604
115.514439305       0.0138961652015
116.014501813       0.0116949827784
116.514564321       0.00980425667754
117.014626828       0.00818738338205
117.514689336       0.00681081550664
118.014751844       0.00564404210594
118.514814352       0.00465951994244
119.01487686       0.00383256591392
119.514939367       0.0031412202051
120.015001875       0.00256608896004
120.515064383       0.00209017442272
121.015126891       0.00169869960939
121.515189399       0.00137893369932
122.015251906       0.00112002349175
122.515314414       0.000912835503672
123.015376922       0.000749812592619
123.51543943       0.000624848393782
124.015501938       0.000533182366061
124.515564446       0.000471317847217
125.015626953       0.00043696521777
125.515689461       0.000429012056543
126.015751969       0.000447522022915
126.515814477       0.000493764103593
127.015876985       0.000570273793524
127.515939492       0.00068094771716
128.016002       0.000831173111198
128.516064508       0.00102799345495
129.016127016       0.00128031132021
129.516189524       0.00159912918921
130.016252032       0.00199782852759
130.516314539       0.00249248677082
131.016377047       0.00310223106306
131.516439555       0.00384962655371
132.016502063       0.00476109579563
132.516564571       0.00586736428979
133.016627078       0.00720392548696
133.516689586       0.00881151659873
134.016752094       0.010736594415
134.516814602       0.013031798012
135.01687711       0.0157563828223
135.516939617       0.0189766080991
136.017002125       0.0227660574327
136.517064633       0.0272058697778
137.017127141       0.0323848565481
137.517189649       0.0383994788663
138.017252157       0.0453536581715
138.517314664       0.0533583932278
139.017377172       0.062531157302
139.51743968       0.072995051013
140.017502188       0.084877689233
140.517564696       0.0983098045286
141.017627203       0.113423555027
141.517689711       0.130350531295
142.017752219       0.149219464796
142.517814727       0.170153649627
143.017877235       0.193268099388
143.517939742       0.218666471978
144.01800225       0.246437806531
144.518064758       0.276653128236
145.018127266       0.30936198808
145.518189774       0.344589015047
146.018252282       0.382330567629
146.518314789       0.422551579055
147.018377297       0.465182696022
147.518439805       0.510117813393
148.018502313       0.557212106988
148.518564821       0.606280662812
149.018627328       0.657097793794
149.518689836       0.709397124084
150.018752344       0.762872506373
150.518814852       0.817179819714
151.01887736       0.871939674271
151.518939867       0.926741025914
152.019002375       0.981145678158
152.519064883       1.03469362253
153.019127391       1.08690914178
153.519189899       1.13730757458
154.019252407       1.18540261625
154.519314914       1.23071400869
155.019377422       1.27277545524
155.51943993       1.31114258269
156.019502438       1.34540076516
156.519564946       1.37517262184
157.019627453       1.40012500471
157.519689961       1.419975302
158.019752469       1.4344968991
158.519814977       1.44352366013
159.019877485       1.44695331973
159.519939992       1.44474970554
160.0200025       1.43694374572
160.520065008       1.42363325201
161.020127516       1.40498150636
161.520190024       1.3812147156
162.020252532       1.35261843499
162.520315039       1.3195330938
163.020377547       1.28234878637
163.520440055       1.24149951644
164.020502563       1.1974571029
164.520565071       1.15072496906
165.020627578       1.10183204549
165.520690086       1.05132701829
166.020752594       0.99977315047
166.520815102       0.947743893325
167.02087761       0.895819488813
167.520940118       0.844584742517
168.021002625       0.794628120512
168.521065133       0.746542293073
169.021127641       0.700926213915
169.521190149       0.658388786134
170.021252657       0.619554125676
170.521315164       0.585068390273
171.021377672       0.555608096799
171.52144018       0.531889803095
172.021502688       0.51468098184
172.521565196       0.504811864277
173.021627703       0.50318798096
173.521690211       0.510803075641
174.021752719       0.52875201769
174.521815227       0.558243288946
175.021877735       0.60061057383
175.521940243       0.657322938411
176.02200275       0.729993046697
176.522065258       0.820382832891
177.022127766       0.930406029053
177.522190274       1.06212694115
178.022252782       1.21775487566
178.522315289       1.39963364642
179.022377797       1.61022563961
179.522440305       1.85208998662
180.022502813       2.12785449096
180.522565321       2.44018107792
181.022627828       2.79172468474
181.522690336       3.18508568345
182.022752844       3.62275612594
182.522815352       4.10706031886
183.02287786       4.64009046877
183.522940368       5.22363837981
184.023002875       5.85912443002
184.523065383       6.5475252888
185.023127891       7.28930205794
185.523190399       8.08433071206
186.023252907       8.93183686977
186.523315414       9.83033703576
187.023377922       10.777588505
187.52344043       11.7705501065
188.023502938       12.805355878
188.523565446       13.8773036005
189.023627953       14.9808598801
189.523690461       16.1096831479
190.023752969       17.2566655568
190.523815477       18.4139942973
191.023877985       19.5732323466
191.523940493       20.7254181109
192.024003       21.8611828487
192.524065508       22.9708841802
193.024128016       24.0447534266
193.524190524       25.0730539888
194.024253032       26.0462475071
194.524315539       26.955164143
195.024378047       27.7911730257
195.524440555       28.546348709
196.024503063       29.2136294136
196.524565571       29.7869628856
197.024628079       30.2614358842
197.524690586       30.6333836306
198.024753094       30.9004759821
198.524815602       31.0617776434
199.02487811       31.1177803667
199.524940618       31.070405805
200.025003125       30.9229784525
200.525065633       30.680168896
201.025128141       30.3479083974
201.525190649       29.9332766009
202.025253157       29.444364875
202.525315664       28.890118455
203.025378172       28.2801611053
203.52544068       27.6246064731
204.025503188       26.9338606311
204.525565696       26.2184205055
205.025628204       25.4886729502
205.525690711       24.7546991591
206.025753219       24.0260889125
206.525815727       23.3117688372
207.025878235       22.6198484386
207.525940743       21.9574871464
208.02600325       21.3307850306
208.526065758       20.7446991959
209.026128266       20.2029871863
209.526190774       19.708178032
210.026253282       19.2615708822
210.526315789       18.8632604894
211.026378297       18.5121881866
211.526440805       18.2062164115
212.026503313       17.942224328
212.526565821       17.7162216544
213.026628329       17.5234774659
213.526690836       17.3586604777
214.026753344       17.2159871602
214.526815852       17.0893739686
215.02687836       16.9725900027
215.526940868       16.859406534
216.027003375       16.743740043
216.527065883       16.619785694
217.027128391       16.4821385248
217.527190899       16.3259000394
218.027253407       16.1467683403
218.527315914       15.9411104232
219.027378422       15.7060157552
219.52744093       15.4393307636
220.027503438       15.1396743541
220.527565946       14.806435049
221.027628454       14.4397507705
221.527690961       14.0404726817
222.027753469       13.6101148316
222.527815977       13.1507916195
223.027878485       12.6651452954
223.527940993       12.1562658439
224.0280035       11.627605657
224.528066008       11.0828913901
225.028128516       10.526035317
225.528191024       9.96104836227
226.028253532       9.39195679691
226.52831604       8.82272434926
227.028378547       8.2571812129
227.528441055       7.69896114067
228.028503563       7.15144750831
228.528566071       6.61772892275
229.028628579       6.10056464963
229.528691086       5.60235985019
230.028753594       5.12515035782
230.528816102       4.67059649453
231.02887861       4.23998523359
231.528941118       3.83423985838
232.029003625       3.45393615143
232.529066133       3.09932407123
233.029128641       2.77035383683
233.529191149       2.46670533792
234.029253657       2.18781981841
234.529316165       1.93293283925
235.029378672       1.70110760685
235.52944118       1.49126785176
236.029503688       1.30222955242
236.529566196       1.13273091706
237.029628704       0.981460156576
237.529691211       0.847080700069
238.029753719       0.728253617898
238.529816227       0.623657121753
239.029878735       0.53200310571
239.529941243       0.452050774122
240.03000375       0.382617471117
240.530066258       0.32258688187
241.030128766       0.270914817947
241.530191274       0.22663282851
242.030253782       0.188849897039
242.53031629       0.156752490711
243.030378797       0.12960322811
243.530441305       0.106738422026
244.030503813       0.0875647393116
244.530566321       0.0715552005152
245.030628829       0.058244719719
245.530691336       0.0472253609602
246.030753844       0.0381414628276
246.530816352       0.0306847582801
247.03087886       0.0245895931428
247.530941368       0.0196283246818
248.031003875       0.0156069615376
248.531066383       0.0123610883831
249.031128891       0.00975210308411
249.531191399       0.00766378091794
250.031253907       0.00599916946688
250.531316415       0.0046778090409
251.031378922       0.00363326669889
251.53144143       0.00281096693424
252.031503938       0.00216629863644
252.531566446       0.00166297580631
253.031628954       0.0012716284631
253.531691461       0.000968600023957
254.031753969       0.000734927965638
254.531816477       0.000555485620862
255.031878985       0.000418264366391
255.531941493       0.00031377709969
256.032004001       0.000234565670376
256.532066508       0.000174796748075
257.032129016       0.000129932405046
257.532191524       9.64634225002e-05
258.032254032       7.16949609351e-05
258.53231654       5.35757464496e-05
259.032379047       4.05633062035e-05
