#  x                 y             frequency           intensity
0.0       3.20917543087e-06       41.98       3.05267
0.500062507813       4.4469538991e-06       49.09       1.25794
1.00012501563       6.1381655774e-06       63.18       1.01162
1.50018752344       8.43959458372e-06       88.27       1.00074
2.00025003125       1.15587748617e-05       171.28       8.30337
2.50031253907       1.57691939007e-05       187.95       0.05717
3.00037504688       2.14296411036e-05       298.94       25.08869
3.50043755469       2.9008700806e-05       314.26       15.49908
4.00050006251       3.91155924367e-05       339.97       5.47799
4.50056257032       5.25387928091e-05       343.66       88.20151
5.00062507813       7.02941394254e-05       354.03       13.56918
5.50068758595       9.36844094397e-05       412.96       4.59630
6.00075009376       0.000124372695803       424.29       2.13663
6.50081260158       0.000164472257685       431.02       9.45525
7.00087510939       0.000216655902046       494.28       8.36719
7.5009376172       0.000284288350195       530.06       13.46476
8.00100012502       0.000371585447159       570.73       11.56225
8.50106263283       0.000483804469127       659.15       0.67041
9.00112514064       0.000627470157365       660.39       3.89948
9.50118764846       0.00081064143373       708.61       10.44222
10.0012501563       0.00104322400638       739.85       0.81419
10.5013126641       0.00133733422276       797.37       13.42165
11.0013751719       0.00170771953382       817.66       20.22243
11.5014376797       0.00217224075774       843.24       29.05559
12.0015001875       0.00275242092834       846.10       45.49245
12.5015626953       0.00347406483517       857.93       28.11950
13.0016252032       0.00436795236044       875.70       49.99874
13.501687711       0.00547060734423       890.57       15.32700
14.0017502188       0.00682514191895       935.31       1.31503
14.5018127266       0.00848217400839       947.34       48.45899
15.0018752344       0.0105008129568       968.10       2.67674
15.5019377422       0.0129497050235       984.51       51.14879
16.00200025       0.0159081267498       1035.27       0.05875
16.5020627578       0.0194671100042       1099.13       11.75660
17.0021252657       0.0237305778801       1124.43       19.72725
17.5021877735       0.0288164656475       1163.57       8.60190
18.0022502813       0.034857795744       1188.79       212.49149
18.5023127891       0.0420036704878       1199.10       2.73007
19.0023752969       0.0504201409755       1213.78       12.77776
19.5024378047       0.0602909057124       1233.87       1.51128
20.0025003125       0.0718177881543       1289.23       28.62881
20.5025628204       0.08522093879       1290.80       76.62316
21.0026253282       0.100738704953       1297.02       8.80224
21.502687836       0.118627110526       1348.32       5.26241
22.0027503438       0.139158888373       1361.31       9.46354
22.5028128516       0.162622011021       1366.59       35.45976
23.0028753594       0.189317670011       1378.24       21.59186
23.5029378672       0.219557661696       1408.38       429.14748
24.003000375       0.253661147203       1474.43       14.12326
24.5030628829       0.291950766809       1489.55       5.57994
25.0031253907       0.33474810414       1551.76       98.90939
25.5031878985       0.382368513114       1633.34       15.92898
26.0032504063       0.435115340272       1658.28       37.34618
26.5033129141       0.493273596504       1663.74       34.62744
27.0033754219       0.557103154778       1838.06       350.70755
27.5034379297       0.626831573617       3033.03       6.62206
28.0035004376       0.702646668921       3047.27       21.62620
28.5035629454       0.784688978567       3096.36       5.85318
29.0036254532       0.873044284015       3152.55       15.89454
29.503687961       0.967736370049       3164.67       7.85110
30.0037504688       1.06872021685       3169.93       8.12684
30.5038129766       1.17587582693       3196.89       3.62915
31.0038754844       1.28900289234       3452.70       233.91053
31.5039379922       1.40781650428       3493.17       6.01712
32.0040005001       1.53194409767       3563.62       24.28977
32.5040630079       1.6609238063       3798.46       69.84601
33.0041255157       1.79420438129
33.5041880235       1.93114679551
34.0042505313       2.07102762098
34.5043130391       2.21304422539
35.0043755469       2.35632178906
35.5044380548       2.49992209593
36.0045005626       2.64285400315
36.5045630704       2.78408544537
37.0046255782       2.92255678276
37.504688086       3.05719525882
38.0047505938       3.18693029589
38.5048131016       3.31070932473
39.0048756095       3.42751382089
39.5049381173       3.53637520542
40.0050006251       3.63639026225
40.5050631329       3.72673572835
41.0051256407       3.80668172699
41.5051881485       3.87560373761
42.0052506563       3.93299282768
42.5053131641       3.97846391177
43.005375672       4.01176184896
43.5054381798       4.03276524089
44.0055006876       4.04148784715
44.5055631954       4.03807759094
45.0056257032       4.02281318422
45.505688211       3.99609845608
46.0057507188       3.95845451988
46.5058132267       3.91050996178
47.0058757345       3.85298927497
47.5059382423       3.78669979901
48.0060007501       3.7125174519
48.5060632579       3.63137156263
49.0061257657       3.54422912507
49.5061882735       3.45207879855
50.0062507813       3.35591497841
50.5063132892       3.25672224972
51.006375797       3.15546052148
51.5064383048       3.05305111639
52.0065008126       2.95036406392
52.5065633204       2.84820681292
53.0066258282       2.74731454465
53.506688336       2.64834222912
54.0067508439       2.55185852797
54.5068133517       2.45834160593
55.0068758595       2.36817687204
55.5069383673       2.28165663099
56.0070008751       2.19898158573
56.5070633829       2.12026409543
57.0071258907       2.04553305832
57.5071883985       1.97474025809
58.0072509064       1.90776798565
58.5073134142       1.84443772577
59.007375922       1.78451968105
59.5074384298       1.72774289401
60.0075009376       1.67380572167
60.5075634454       1.62238641746
61.0076259532       1.57315358015
61.5076884611       1.52577624097
62.0077509689       1.47993337638
62.5078134767       1.43532265493
63.0078759845       1.39166825172
63.5079384923       1.34872759268
64.0080010001       1.30629692154
64.5080635079       1.26421561488
65.0081260158       1.22236920367
65.5081885236       1.18069109223
66.0082510314       1.13916299669
66.5083135392       1.09781415407
67.008376047       1.056719379
67.5084385548       1.01599606782
68.0085010626       0.975800267765
68.5085635704       0.9363219436
69.0086260783       0.897779583217
69.5086885861       0.860414289531
70.0087510939       0.824483506968
70.5088136017       0.790254528505
71.0088761095       0.75799792342
71.5089386173       0.727981017559
72.0090011251       0.700461547406
72.509063633       0.675681597368
73.0091261408       0.653861916949
73.5091886486       0.635196701482
74.0092511564       0.619848907274
74.5093136642       0.607946159803
75.009376172       0.599577302164
75.5094386798       0.594789620552
76.0095011876       0.593586774074
76.5095636955       0.595927447669
77.0096262033       0.601724739095
77.5096887111       0.610846283616
78.0097512189       0.623115113007
78.5098137267       0.638311238348
79.0098762345       0.656173938695
79.5099387423       0.676404729813
80.0100012502       0.698670978575
80.510063758       0.722610119423
81.0101262658       0.747834419344
81.5101887736       0.773936227457
82.0102512814       0.800493634714
82.5103137892       0.827076458679
83.010376297       0.853252458474
83.5104388049       0.878593676029
84.0105013127       0.902682792403
84.5105638205       0.925119382574
85.0106263283       0.945525949201
85.5106888361       0.963553615829
86.0107513439       0.978887363076
86.5108138517       0.991250697801
87.0108763595       1.00040965494
87.5109388674       1.00617604473
88.0110013752       1.00840987388
88.511063883       1.00702088787
89.0111263908       1.00196920193
89.5111888986       0.993265010191
90.0112514064       0.980967385232
90.5113139142       0.965182202426
91.0113764221       0.946059245479
91.5114389299       0.923788569351
92.0115014377       0.898596214593
92.5115639455       0.870739381996
93.0116264533       0.840501187859
93.5116889611       0.808185127988
94.0117514689       0.774109382277
94.5118139767       0.73860109157
95.0118764846       0.701990734431
95.5119389924       0.664606723752
96.0120015002       0.62677033221
96.512064008       0.588791041896
97.0121265158       0.550962397595
97.5121890236       0.513558425805
98.0122515314       0.476830663307
98.5123140393       0.441005820649
99.0123765471       0.406284087789
99.5124390549       0.372838072116
100.012501563       0.340812343451
100.512564071       0.310323546955
101.012626578       0.281461033415
101.512689086       0.254287947346
102.012751594       0.228842706808
102.512814102       0.205140804861
103.01287661       0.183176861008
103.512939117       0.162926851632
104.013001625       0.144350451174
104.513064133       0.127393420141
105.013126641       0.111989981885
105.513189149       0.0980651369307
106.013251656       0.0855368711726
106.513314164       0.0743182222494
107.013376672       0.0643191763816
107.51343918       0.0554483758128
108.013501688       0.0476146243851
108.513564196       0.0407281855727
109.013626703       0.0347018733358
109.513689211       0.0294519413552
110.013751719       0.0248987805064
110.513814227       0.0209674378307
111.013876735       0.0175879727662
111.513939242       0.014695668089
112.01400175       0.0122311139269
112.514064258       0.0101401834635
113.014126766       0.00837391862699
113.514189274       0.006888343267
114.014251781       0.00564422016938
114.514314289       0.00460676683581
115.014376797       0.00374534335769
115.514439305       0.00303312402295
116.014501813       0.00244676257884
116.514564321       0.00196605939507
117.014626828       0.00157363717302
117.514689336       0.00125463036647
118.014751844       0.000996392139177
118.514814352       0.000788221500754
119.01487686       0.000621112241087
119.514939367       0.000487524423411
120.015001875       0.000381178492593
120.515064383       0.000296871496902
121.015126891       0.000230314496189
121.515189399       0.000177989921992
122.015251906       0.000137027450076
122.515314414       0.000105096827765
123.015376922       8.03160521918e-05
123.51543943       6.11733073694e-05
124.015501938       4.6461125364e-05
124.515564446       3.52213291042e-05
125.015626953       2.66994323643e-05
125.515689461       2.03073090896e-05
126.015751969       1.55930939828e-05
126.515814477       1.22174354287e-05
127.015876985       9.9353882791e-06
127.515939492       8.58340713587e-06
128.016002       8.07108135615e-06
128.516064508       8.37744314052e-06
129.016127016       9.55188300244e-06
129.516189524       1.17199269887e-05
130.016252032       1.50943725017e-05
130.516314539       1.99925505743e-05
131.016377047       2.6860788759e-05
131.516439555       3.63074977056e-05
132.016502063       4.91467035725e-05
132.516564571       6.64543051704e-05
133.016627078       8.96398562873e-05
133.516689586       0.000120537266197
134.016752094       0.000161518479614
134.516814602       0.00021563494381
135.01687711       0.000286792494608
135.516939617       0.000379966189794
136.017002125       0.000501462578106
136.517064633       0.000659237897943
137.017127141       0.000863281727827
137.517189649       0.0011260766271
138.017252157       0.00146314526612
138.517314664       0.00189369739475
139.017377172       0.00244138966808
139.51743968       0.00313521175688
140.017502188       0.00401051222408
140.517564696       0.0051101772383
141.017627203       0.00648597420548
141.517689711       0.0082000707011
142.017752219       0.0103267365488
142.517814727       0.012954233385
143.017877235       0.0161868914481
143.517939742       0.020147367529
144.01800225       0.0249790709268
144.518064758       0.030848735821
145.018127266       0.037949108694
145.518189774       0.046501708362
146.018252282       0.0567596039199
146.518314789       0.0690101426795
147.018377297       0.0835775462555
147.518439805       0.100825278731
148.018502313       0.121158076773
148.518564821       0.145023518288
149.018627328       0.172912994306
149.518689836       0.205361939142
150.018752344       0.242949167148
150.518814852       0.286295161576
151.01887736       0.336059162904
151.518939867       0.392934911407
152.019002375       0.457644912395
152.519064883       0.530933113088
153.019127391       0.613555907942
153.519189899       0.70627142457
154.019252407       0.809827085161
154.519314914       0.924945488055
155.019377422       1.05230871009
155.51943993       1.19254119142
156.019502438       1.34619142908
156.519564946       1.5137127718
157.019627453       1.69544367428
157.519689961       1.89158783143
158.019752469       2.10219466995
158.519814977       2.32714072238
159.019877485       2.56611244498
159.519939992       2.81859106333
160.0200025       3.08384003437
160.520065008       3.36089570083
161.020127516       3.64856168023
161.520190024       3.94540747648
162.020252532       4.24977172639
162.520315039       4.55977039817
163.020377547       4.873310145
163.520440055       5.18810688656
164.020502563       5.50170954982
164.520565071       5.81152874976
165.020627578       6.11487003704
165.520690086       6.40897118852
166.020752594       6.69104287225
166.520815102       6.95831188823
167.02087761       7.20806607422
167.520940118       7.43769987752
168.021002625       7.64475953327
168.521065133       7.82698676056
169.021127641       7.98235989158
169.521190149       8.10913138806
170.021252657       8.20586077118
170.521315164       8.27144209677
171.021377672       8.30512524154
171.52144018       8.30653042581
172.021502688       8.27565557751
172.521565196       8.21287633559
173.021627703       8.11893869114
173.521690211       7.9949444652
174.021752719       7.84233001565
174.521815227       7.66283874566
175.021877735       7.45848814646
175.521940243       7.23153224233
176.02200275       6.98442041184
176.522065258       6.71975363284
177.022127766       6.44023923829
177.522190274       6.14864527486
178.022252782       5.847755528
178.522315289       5.54032621689
179.022377797       5.2290452749
179.522440305       4.91649501905
180.022502813       4.60511888146
180.522565321       4.29719273095
181.022627828       3.99480116101
181.522690336       3.69981896585
182.022752844       3.41389787435
182.522815352       3.13845846901
183.02287786       2.87468708517
183.522940368       2.62353737102
184.023002875       2.3857360917
184.523065383       2.16179268468
185.023127891       1.95201201791
185.523190399       1.7565097683
186.023252907       1.57522982426
186.523315414       1.40796312143
187.023377922       1.25436734274
187.52344043       1.11398695095
188.023502938       0.986273070352
188.523565446       0.87060279183
189.023627953       0.766297539183
189.523690461       0.672640201518
190.023752969       0.588890804143
190.523815477       0.514300556454
191.023877985       0.448124177756
191.523940493       0.389630459285
192.024003       0.338111071671
192.524065508       0.292887670859
193.024128016       0.25331739169
193.524190524       0.218796846777
194.024253032       0.188764769209
194.524315539       0.162703451384
195.024378047       0.140139139513
195.524440555       0.120641544865
196.024503063       0.103822629384
196.524565571       0.0893348159047
197.024628079       0.0768687626308
197.524690586       0.0661508286845
198.024753094       0.0569403432407
198.524815602       0.0490267756574
199.02487811       0.0422268887873
199.524940618       0.0363819427834
200.025003125       0.0313550026302
200.525065633       0.0270283896323
201.025128141       0.0233013054034
201.525190649       0.0200876466487
202.025253157       0.0173140202677
202.525315664       0.0149179610263
203.025378172       0.0128463481943
203.52544068       0.0110540130114
204.025503188       0.00950252552288
204.525565696       0.00815914705766
205.025628204       0.00699593326771
205.525690711       0.00598897205137
206.025753219       0.00511774070106
206.525815727       0.00436456711047
207.025878235       0.00371418072407
207.525940743       0.0031533400035
208.02600325       0.0026705244272
208.526065758       0.00225568035433
209.026128266       0.00190001140849
209.526190774       0.00159580532282
210.026253282       0.00133629040058
210.526315789       0.00111551585942
211.026378297       0.000928251329083
211.526440805       0.000769901654147
212.026503313       0.00063643391498
212.526565821       0.000524314225821
213.026628329       0.000430452406134
213.526690836       0.00035215306008
214.026753344       0.00028707195035
214.526815852       0.000233176828241
215.02687836       0.000188712093362
215.526940868       0.000152166814758
216.027003375       0.000122245760543
216.527065883       9.78431644995e-05
217.027128391       7.80190133124e-05
217.527190899       6.19776738866e-05
218.027253407       4.90487020347e-05
218.527315914       3.86696861659e-05
219.027378422       3.03709859286e-05
219.52744093       2.37622286743e-05
220.027503438       1.8520428019e-05
220.527565946       1.43795899848e-05
221.027628454       1.11216740386e-05
221.527690961       8.56877926251e-06
222.027753469       6.57643007257e-06
222.527815977       5.02784134314e-06
223.027878485       3.82904934257e-06
223.527940993       2.90480233117e-06
224.0280035       2.19511275558e-06
224.528066008       1.65238143707e-06
225.028128516       1.23901274755e-06
225.528191024       9.25448280342e-07
226.028253532       6.88554770108e-07
226.52831604       5.10309854968e-07
227.028378547       3.76736598105e-07
227.528441055       2.77044425948e-07
228.028503563       2.02940256368e-07
228.528566071       1.480790704e-07
229.028628579       1.07628033515e-07
229.528691086       7.79225221028e-08
230.028753594       5.61960943115e-08
230.528816102       4.03696061756e-08
231.02887861       2.88873629583e-08
231.528941118       2.05904624662e-08
232.029003625       1.46193820357e-08
232.529066133       1.03394321737e-08
233.029128641       7.28399263814e-09
233.529191149       5.11150244862e-09
234.029253657       3.57303116506e-09
234.529316165       2.48794771913e-09
235.029378672       1.72575390795e-09
235.52944118       1.19258716314e-09
236.029503688       8.21242519941e-10
236.529566196       5.63834651791e-10
237.029628704       3.86432303289e-10
237.529691211       2.65161812714e-10
238.029753719       1.83403881541e-10
238.529816227       1.29806763482e-10
239.029878735       9.69166299071e-11
239.529941243       8.028796806e-11
240.03000375       7.79886982108e-11
240.530066258       9.04610967144e-11
241.030128766       1.20745440098e-10
241.530191274       1.75123863759e-10
242.030253782       2.6430359572e-10
242.53031629       4.05339529834e-10
243.030378797       6.24606708347e-10
243.530441305       9.62288168955e-10
244.030503813       1.47906266707e-09
244.530566321       2.26598745096e-09
245.030628829       3.45901139334e-09
245.530691336       5.26017542363e-09
246.030753844       7.96843165915e-09
246.530816352       1.20242370687e-08
247.03087886       1.80737836207e-08
247.530941368       2.70610921528e-08
248.031003875       4.03594594034e-08
248.531066383       5.99582233014e-08
249.031128891       8.87269194985e-08
249.531191399       1.30787192727e-07
250.031253907       1.92034018724e-07
250.531316415       2.80862818566e-07
251.031378922       4.09179108201e-07
251.53144143       5.93793957751e-07
252.031503938       8.58343687373e-07
252.531566446       1.23591835575e-06
253.031628954       1.77264377373e-06
