#  x                 y             frequency           intensity
0.0       0.00168790529844       29.52       1.52773
0.500062507813       0.0021216381824       52.08       0.08595
1.00012501563       0.00265642575649       54.01       0.09734
1.50018752344       0.00331304363652       62.29       0.13756
2.00025003125       0.00411585194134       171.93       1.21275
2.50031253907       0.00509325529341       201.29       1.69115
3.00037504688       0.00627818720058       293.93       23.39793
3.50043755469       0.0077086120888       298.33       41.47904
4.00050006251       0.00942803610966       316.49       8.69053
4.50056257032       0.0114860154993       334.48       98.35941
5.00062507813       0.0139386487619       352.73       1.20539
5.50068758595       0.016849036353       403.90       5.22298
6.00075009376       0.020287688922       423.69       2.24661
6.50081260158       0.024332862642       432.42       10.82859
7.00087510939       0.0290707978183       485.69       1.54186
7.5009376172       0.0345958349601       515.96       37.22414
8.00100012502       0.0410103809663       539.44       19.26423
8.50106263283       0.0484246971694       585.81       49.32743
9.00112514064       0.0569564808588       625.41       50.20284
9.50118764846       0.0667302127284       659.69       0.44074
10.0012501563       0.0778762445919       727.45       27.12895
10.5013126641       0.0905296048303       744.73       36.73755
11.0013751719       0.104828503458       781.15       13.64076
11.5014376797       0.120912524486       816.95       17.10955
12.0015001875       0.13892050043       834.50       47.39121
12.5015626953       0.158988072326       848.53       54.86439
13.0016252032       0.181244948343       859.01       15.28411
13.501687711       0.205811884869       884.56       16.85696
14.0017502188       0.232797425566       934.30       0.52586
14.5018127266       0.262294445942       938.10       10.11911
15.0018752344       0.294376563225       964.96       0.37693
15.5019377422       0.329094483162       1011.55       7.23579
16.00200025       0.366472366442       1035.83       0.22574
16.5020627578       0.406504307162       1120.94       27.70477
17.0021252657       0.449151023618       1130.11       38.79504
17.5021877735       0.494336867205       1142.31       318.68886
18.0022502813       0.541947257892       1182.40       59.67980
18.5023127891       0.591826654099       1194.73       107.62346
19.0023752969       0.643777160652       1198.72       5.91804
19.5024378047       0.697557870496       1234.10       0.88564
20.0025003125       0.752885023999       1269.36       6.70012
20.5025628204       0.809433053996       1286.91       104.78576
21.0026253282       0.866836565508       1303.75       2.81218
21.502687836       0.924693276608       1337.56       23.34593
22.0027503438       0.982567921881       1342.19       6.45207
22.5028128516       1.03999709292       1364.04       19.99785
23.0028753594       1.09649496225       1367.45       22.34719
23.5029378672       1.15155980883       1424.10       19.11094
24.003000375       1.20468123594       1473.56       15.50022
24.5030628829       1.25534794677       1483.48       7.74005
25.0031253907       1.30305592036       1551.07       104.96574
25.5031878985       1.34731681211       1633.98       10.23924
26.0032504063       1.38766638855       1647.17       39.09203
26.5033129141       1.42367279809       1659.24       44.85914
27.0033754219       1.45494447625       1815.49       284.18130
27.5034379297       1.48113748781       2909.05       37.94358
28.0035004376       1.50196211797       3061.79       12.55965
28.5035629454       1.51718854073       3105.57       7.78121
29.0036254532       1.52665141419       3149.32       17.36627
29.503687961       1.53025327956       3168.15       12.87678
30.0037504688       1.52796667116       3172.62       4.71106
30.5038129766       1.51983487898       3196.00       4.50925
31.0038754844       1.50597134153       3497.68       0.67675
31.5039379922       1.48655768312       3579.02       11.41987
32.0040005001       1.46184044647       3725.38       66.88710
32.5040630079       1.43212660537       3799.83       64.58655
33.0041255157       1.39777797432
33.5041880235       1.35920465888
34.0042505313       1.31685771357
34.5043130391       1.27122119095
35.0043755469       1.22280377675
35.5044380548       1.1721302106
36.0045005626       1.11973269101
36.5045630704       1.06614245565
37.0046255782       1.01188171603
37.504688086       0.957456107913
38.0047505938       0.903347798172
38.5048131016       0.850009364272
39.0048756095       0.797858536734
39.5049381173       0.747273867629
40.0050006251       0.698591361018
40.5050631329       0.652102074869
41.0051256407       0.608050679289
41.5051881485       0.566634933495
42.0052506563       0.528006024447
42.5053131641       0.492269693744
43.005375672       0.459488066608
43.5054381798       0.429682087491
44.0055006876       0.402834461127
44.5055631954       0.378892995383
45.0056257032       0.357774242923
45.505688211       0.339367342016
46.0057507188       0.323537962405
46.5058132267       0.310132269664
47.0058757345       0.29898083031
47.5059382423       0.289902389773
48.0060007501       0.282707465776
48.5060632579       0.277201710184
49.0061257657       0.273189002913
49.5061882735       0.27047425147
50.0062507813       0.268865879138
50.5063132892       0.268177993433
51.006375797       0.268232234157
51.5064383048       0.268859307124
52.0065008126       0.269900215322
52.5065633204       0.271207203995
53.0066258282       0.272644439821
53.506688336       0.274088447118
54.0067508439       0.275428325898
54.5068133517       0.2765657776
55.0068758595       0.277414964677
55.5069383673       0.277902229813
56.0070008751       0.277965699623
56.5070633829       0.277554796265
57.0071258907       0.276629678535
57.5071883985       0.275160631883
58.0072509064       0.273127424405
58.5073134142       0.270518643378
59.007375922       0.267331024335
59.5074384298       0.263568782163
60.0075009376       0.259242951354
60.5075634454       0.254370740281
61.0076259532       0.248974902463
61.5076884611       0.24308312612
62.0077509689       0.236727442017
62.5078134767       0.229943648632
63.0078759845       0.222770753114
63.5079384923       0.215250426255
64.0080010001       0.207426469791
64.5080635079       0.199344294719
65.0081260158       0.191050409939
65.5081885236       0.182591921293
66.0082510314       0.17401604195
66.5083135392       0.165369616032
67.008376047       0.156698658197
67.5084385548       0.148047912756
68.0085010626       0.139460436448
68.5085635704       0.130977209509
69.0086260783       0.122636779822
69.5086885861       0.114474944936
70.0087510939       0.106524476456
70.5088136017       0.098814890758
71.0088761095       0.0913722693075
71.5089386173       0.0842191308929
72.0090011251       0.077374357078
72.509063633       0.0708531710255
73.0091261408       0.0646671686747
73.5091886486       0.058824400098
74.0092511564       0.0533294977657
74.5093136642       0.0481838474588
75.009376172       0.0433857967225
75.5094386798       0.0389308950833
76.0095011876       0.0348121597678
76.5095636955       0.0310203603846
77.0096262033       0.0275443159554
77.5096887111       0.0243711977975
78.0097512189       0.0214868320636
78.5098137267       0.0188759961965
79.0098762345       0.0165227041475
79.5099387423       0.0144104758934
80.0100012502       0.0125225875464
80.510063758       0.010842299148
81.0101262658       0.00935305803935
81.5101887736       0.00803867649219
82.0102512814       0.00688348301887
82.5103137892       0.00587244746559
83.010376297       0.00499128059037
83.5104388049       0.00422650934057
84.0105013127       0.00356552946197
84.5105638205       0.00299663739179
85.0106263283       0.00250904361405
85.5106888361       0.00209286979173
86.0107513439       0.00173913204479
86.5108138517       0.00143971272526
87.0108763595       0.00118732296115
87.5109388674       0.000975458112252
88.0110013752       0.000798348113054
88.511063883       0.000650904483275
89.0111263908       0.000528665575049
89.5111888986       0.000427741406275
90.0112514064       0.000344759210884
90.5113139142       0.000276810624934
91.0113764221       0.000221401227956
91.5114389299       0.000176402975834
92.0115014377       0.000140009897212
92.5115639455       0.000110697281723
93.0116264533       8.7184465529e-05
93.5116889611       6.84012177104e-05
94.0117514689       5.34576488257e-05
94.5118139767       4.16174991537e-05
95.0118764846       3.22746169474e-05
95.5119389924       2.49324044857e-05
96.0120015002       1.91859897649e-05
96.512064008       1.47068722627e-05
97.0121265158       1.12297903777e-05
97.5121890236       8.5415640433e-06
98.0122515314       6.47167700427e-06
98.5123140393       4.8843778482e-06
99.0123765471       3.67209586474e-06
99.5124390549       2.74998611399e-06
100.012501563       2.05143687721e-06
100.512564071       1.52439127351e-06
101.012626578       1.12835275619e-06
101.512689086       8.31961093736e-07
102.012751594       6.11041056902e-07
102.512814102       4.47040238823e-07
103.01287661       3.25785172017e-07
103.512939117       2.36496181256e-07
104.013001625       1.71011274905e-07
104.513064133       1.23177913648e-07
105.013126641       8.83788088916e-08
105.513189149       6.3164109765e-08
106.013251656       4.49675580625e-08
106.513314164       3.18885442468e-08
107.013376672       2.25255991897e-08
107.51343918       1.58498124947e-08
108.013501688       1.11090764966e-08
108.513564196       7.75600271871e-09
109.013626703       5.39392170987e-09
109.513689211       3.73662474246e-09
110.013751719       2.57849430013e-09
110.513814227       1.77244836127e-09
111.013876735       1.21373210219e-09
111.513939242       8.28063780791e-10
112.01400175       5.63007185118e-10
112.514064258       3.81723957606e-10
113.014126766       2.5847380291e-10
113.514189274       1.75393892872e-10
114.014251781       1.20212550829e-10
114.514314289       8.46459582457e-11
115.014376797       6.32976737514e-11
115.514439305       5.29351691359e-11
116.014501813       5.20602040821e-11
116.514564321       6.07246954147e-11
117.014626828       8.05742739065e-11
117.514689336       1.15131198952e-10
118.014751844       1.70359982913e-10
118.514814352       2.55596547883e-10
119.01487686       3.84969233494e-10
119.514939367       5.7950276757e-10
120.015001875       8.70181180864e-10
120.515064383       1.30236146003e-09
121.015126891       1.94208817372e-09
121.515189399       2.88507579169e-09
122.015251906       4.26942024279e-09
122.515314414       6.29350103524e-09
123.015376922       9.24107469165e-09
123.51543943       1.35162843091e-08
124.015501938       1.96922766508e-08
124.515564446       2.8578401361e-08
125.015626953       4.13126606744e-08
125.515689461       5.94883007844e-08
126.015751969       8.53263358947e-08
126.515814477       1.21909556407e-07
127.015876985       1.73498419299e-07
127.515939492       2.45955426275e-07
128.016002       3.47312495193e-07
128.516064508       4.88525818562e-07
129.016127016       6.84475247053e-07
129.516189524       9.5528088202e-07
130.016252032       1.3280289379e-06
130.516314539       1.8390227576e-06
131.016377047       2.53670392986e-06
131.516439555       3.48542364271e-06
132.016502063       4.77028665024e-06
132.516564571       6.50334051095e-06
133.016627078       8.83144206075e-06
133.516689586       1.19462023602e-05
134.016752094       1.60964914467e-05
134.516814602       2.16040757899e-05
135.01687711       2.88830647722e-05
135.516939617       3.84639577707e-05
136.017002125       5.1023209936e-05
136.517064633       6.74193712712e-05
137.017127141       8.8736997954e-05
137.517189649       0.000116339683784
138.017252157       0.000151933708658
138.517314664       0.000197643944099
139.017377172       0.00025610378547
139.51743968       0.000330560987127
140.017502188       0.000425001349102
140.517564696       0.000544292228679
141.017627203       0.000694347812294
141.517689711       0.000882317965772
142.017752219       0.00111680226578
142.517814727       0.00140809048354
143.017877235       0.00176843032421
143.517939742       0.00221232260276
144.01800225       0.00275684324432
144.518064758       0.00342199051784
145.018127266       0.00423105474013
145.518189774       0.00521100631693
146.018252282       0.00639289642617
146.518314789       0.00781226290738
147.018377297       0.00950953202847
147.518439805       0.0115304047925
148.018502313       0.0139262143758
148.518564821       0.0167542392197
149.018627328       0.0200779543133
149.518689836       0.0239672013979
150.018752344       0.0284982572985
150.518814852       0.0337537784706
151.01887736       0.03982259925
151.518939867       0.046799361351
152.019002375       0.0547839529806
152.519064883       0.0638807376511
153.019127391       0.0741975554611
153.519189899       0.0858444833594
154.019252407       0.0989323457386
154.519314914       0.11357097263
155.019377422       0.129867209747
155.51943993       0.147922692534
156.019502438       0.167831405118
156.519564946       0.189677054357
157.019627453       0.213530298821
157.519689961       0.239445882228
158.019752469       0.267459730141
158.519814977       0.297586077342
159.019877485       0.329814700763
159.519939992       0.364108338692
160.0200025       0.400400380964
160.520065008       0.438592916409
161.020127516       0.478555222801
161.520190024       0.520122780656
162.020252532       0.563096885257
162.520315039       0.607244921309
163.020377547       0.652301351626
163.520440055       0.697969455523
164.020502563       0.743923834414
164.520565071       0.789813681981
165.020627578       0.835266794841
165.520690086       0.879894277398
166.020752594       0.923295872545
166.520815102       0.965065828603
167.02087761       1.0047991934
167.520940118       1.04209840933
168.021002625       1.07658006949
168.521065133       1.1078816849
169.021127641       1.13566830748
169.521190149       1.15963885248
170.021252657       1.1795319682
170.521315164       1.19513130984
171.021377672       1.20627008816
171.52144018       1.21283478144
172.021502688       1.21476792106
172.521565196       1.21206988569
173.021627703       1.20479966564
173.521690211       1.193074587
174.021752719       1.17706901275
174.521815227       1.15701206524
175.021877735       1.13318443911
175.521940243       1.10591439596
176.02200275       1.07557305039
176.522065258       1.04256907103
177.022127766       1.00734292981
177.522190274       0.970360836677
178.022252782       0.932108496856
178.522315289       0.893084821861
179.022377797       0.853795716094
179.522440305       0.814748047025
180.022502813       0.776443890399
180.522565321       0.739375123095
181.022627828       0.704018416156
181.522690336       0.670830660172
182.022752844       0.64024483556
182.522815352       0.612666322286
183.02287786       0.588469627964
183.522940368       0.567995500886
184.023002875       0.551548385724
184.523065383       0.539394174912
185.023127891       0.531758208094
185.523190399       0.528823475461
186.023252907       0.530728988082
186.523315414       0.53756828891
187.023377922       0.549388091438
187.52344043       0.566187048161
188.023502938       0.587914667228
188.523565446       0.614470411921
189.023627953       0.645703032943
189.523690461       0.681410196911
190.023752969       0.721338485111
190.523815477       0.765183843584
191.023877985       0.812592568412
191.523940493       0.863162908204
192.024003       0.916447358897
192.524065508       0.971955714226
193.024128016       1.02915891861
193.524190524       1.08749374837
194.024253032       1.14636832279
194.524315539       1.20516841908
195.024378047       1.2632645367
195.524440555       1.32001962673
196.024503063       1.37479737334
196.524565571       1.42697088757
197.024628079       1.47593164996
197.524690586       1.52109851919
198.024753094       1.56192660999
198.524815602       1.5979158355
199.02487811       1.62861890797
199.524940618       1.65364859758
200.025003125       1.67268406123
200.525065633       1.68547607315
201.025128141       1.69185101387
201.525190649       1.69171350527
202.025253157       1.68504761405
202.525315664       1.67191658407
203.025378172       1.65246109752
203.52544068       1.62689610483
204.025503188       1.59550630166
204.525565696       1.55864036758
205.025628204       1.51670411317
205.525690711       1.47015270951
206.025753219       1.41948219557
206.525815727       1.36522047382
207.025878235       1.30791801279
207.525940743       1.24813847608
208.02600325       1.18644949223
208.526065758       1.12341376754
209.026128266       1.05958072653
209.526190774       0.99547884217
210.026253282       0.931608791978
210.526315789       0.868437546605
211.026378297       0.806393467348
211.526440805       0.74586245758
212.026503313       0.687185182702
212.526565821       0.630655344267
213.026628329       0.576518967484
213.526690836       0.524974638032
214.026753344       0.476174604551
214.526815852       0.430226647735
215.02687836       0.387196605701
215.526940868       0.347111438391
216.027003375       0.309962710902
216.527065883       0.275710376611
217.027128391       0.244286745368
217.527190899       0.21560052931
218.027253407       0.189540868549
218.527315914       0.165981250453
219.027378422       0.144783248948
219.52744093       0.12580002361
220.027503438       0.108879531826
220.527565946       0.0938674205012
221.027628454       0.0806095762459
221.527690961       0.0689543244499
222.027753469       0.0587542778486
222.527815977       0.0498678439548
223.027878485       0.0421604080043
223.527940993       0.0355052138056
224.0280035       0.029783969131
224.528066008       0.0248872051351
225.028128516       0.0207144208468
225.528191024       0.0171740442129
226.028253532       0.0141832406299
226.52831604       0.0116675985766
227.028378547       0.00956072000623
227.528441055       0.00780374075991
228.028503563       0.006344803564
228.528566071       0.00513850331467
229.028628579       0.00414532145569
229.528691086       0.00333106341447
230.028753594       0.00266631035863
230.528816102       0.00212589402989
231.02887861       0.00168840114417
231.528941118       0.00133571184228
232.029003625       0.00105257494551
232.529066133       0.000826221312901
233.029128641       0.000646015403256
233.529191149       0.000503144196883
234.029253657       0.00039034190796
234.529316165       0.000301648392957
235.029378672       0.000232198807232
235.52944118       0.000178041853903
236.029503688       0.000135983880532
236.529566196       0.000103456085973
237.029628704       7.84021798552e-05
237.529691211       5.91839712909e-05
238.029753719       4.45025347677e-05
238.529816227       3.33327956647e-05
239.029878735       2.48695840955e-05
239.529941243       1.8483414614e-05
240.03000375       1.36844538595e-05
240.530066258       1.0093333396e-05
241.030128766       7.41764739438e-06
241.530191274       5.43314234639e-06
242.030253782       3.96875770356e-06
242.53031629       2.89481212902e-06
243.030378797       2.11375052259e-06
243.530441305       1.55297327487e-06
244.030503813       1.15936286124e-06
244.530566321       8.95205768791e-07
245.030628829       7.35281988376e-07
245.530691336       6.64962275256e-07
246.030753844       6.79217715494e-07
246.530816352       7.82509757153e-07
247.03087886       9.89595066646e-07
247.530941368       1.32735210812e-06
248.031003875       1.83781956786e-06
248.531066383       2.58273575612e-06
249.031128891       3.64998894959e-06
249.531191399       5.16253846491e-06
250.031253907       7.2905536331e-06
250.531316415       1.02677529588e-05
251.031378922       1.44132206803e-05
251.53144143       2.01603469441e-05
252.031503938       2.80949975466e-05
