#  x                 y             frequency           intensity
0.0       4.73144204695e-05       34.29       0.45858
0.500062507813       6.17679114053e-05       44.98       2.37998
1.00012501563       8.03263222525e-05       54.78       0.02824
1.50018752344       0.000104059168207       74.21       0.82233
2.00025003125       0.000134286515286       148.79       0.28358
2.50031253907       0.000172630014676       237.61       0.31579
3.00037504688       0.00022107239255       249.03       22.40179
3.50043755469       0.000282026340064       273.64       4.36306
4.00050006251       0.000358413750993       311.77       20.51087
4.50056257032       0.000453756230353       328.13       6.94786
5.00062507813       0.000572277740887       336.66       98.86898
5.50068758595       0.0007190201602       381.65       0.65275
6.00075009376       0.000899972384653       422.07       1.70060
6.50081260158       0.00112221343264       431.28       8.12031
7.00087510939       0.0013940697664       467.92       13.04822
7.5009376172       0.00172528676672       527.24       33.93611
8.00100012502       0.0021272139583       559.74       10.25943
8.50106263283       0.00261300319948       619.58       83.97053
9.00112514064       0.00319781862147       645.40       36.97478
9.50118764846       0.0038990566403       660.41       1.37504
10.0012501563       0.00473657387868       731.36       1.89742
10.5013126641       0.00573292034131       764.20       32.84850
11.0013751719       0.00691357470277       794.31       7.63094
11.5014376797       0.00830717811283       803.42       7.79822
12.0015001875       0.00994576252224       819.08       17.84305
12.5015626953       0.0118649692061       850.66       57.07951
13.0016252032       0.0141042529348       867.38       32.10881
13.501687711       0.0167070671356       882.00       119.19591
14.0017502188       0.019721025422       926.09       1.12541
14.5018127266       0.0231980350471       963.23       0.79074
15.0018752344       0.0271943981842       973.28       5.63755
15.5019377422       0.031770877427       1017.63       17.42773
16.00200025       0.0369927225405       1036.18       0.23359
16.5020627578       0.0429296562458       1110.28       35.45399
17.0021252657       0.0496558176488       1127.52       7.54932
17.5021877735       0.0572496627831       1143.39       201.52004
18.0022502813       0.0657938225651       1165.08       2.92686
18.5023127891       0.0753749191782       1192.01       174.38293
19.0023752969       0.0860833424556       1199.58       3.40965
19.5024378047       0.0980129881109       1231.95       2.56788
20.0025003125       0.111260959625       1246.23       16.04829
20.5025628204       0.125927235149       1287.06       108.18272
21.0026253282       0.142114299865       1299.35       2.48128
21.502687836       0.159926742894       1339.77       5.06185
22.0027503438       0.179470815914       1359.83       1.53108
22.5028128516       0.200853948354       1367.76       33.45545
23.0028753594       0.2241842113       1375.86       9.36795
23.5029378672       0.249569719254       1418.44       10.78264
24.003000375       0.277117955783       1475.02       17.74169
24.5030628829       0.306935006096       1489.45       10.34307
25.0031253907       0.339124676845       1552.45       98.92228
25.5031878985       0.373787481408       1635.52       11.71003
26.0032504063       0.41101946761       1660.23       44.74154
26.5033129141       0.450910864812       1663.53       27.15208
27.0033754219       0.49354452865       1800.31       235.88046
27.5034379297       0.538994164739       3043.60       17.10507
28.0035004376       0.587322317587       3076.08       7.95623
28.5035629454       0.638578117853       3094.69       14.40449
29.0036254532       0.692794789999       3149.65       16.92845
29.503687961       0.749986933214       3168.69       13.90945
30.0037504688       0.810147601089       3171.55       3.76012
30.5038129766       0.873245219469       3195.71       4.36011
31.0038754844       0.939220396834       3476.82       1.25449
31.5039379922       1.00798269689       3552.93       3.79551
32.0040005001       1.07940745799       3706.84       47.50266
32.5040630079       1.15333275803       3800.00       63.67739
33.0041255157       1.22955663545
33.5041880235       1.30783468645
34.0042505313       1.38787816439
34.5043130391       1.46935270903
35.0043755469       1.55187783036
35.5044380548       1.63502726325
36.0045005626       1.71833029546
36.5045630704       1.80127415247
37.0046255782       1.88330749785
37.504688086       1.96384507904
38.0047505938       2.04227351512
38.5048131016       2.11795818742
39.0048756095       2.19025115596
39.5049381173       2.25849998709
40.0050006251       2.32205734086
40.5050631329       2.38029113289
41.0051256407       2.43259505604
41.5051881485       2.47839922308
42.0052506563       2.51718067503
42.5053131641       2.54847349064
43.005375672       2.57187823225
43.5054381798       2.58707047193
44.0055006876       2.59380815944
44.5055631954       2.59193761961
45.0056257032       2.58139800072
45.505688211       2.56222403609
46.0057507188       2.53454702663
46.5058132267       2.49859400155
47.0058757345       2.45468506553
47.5059382423       2.40322899136
48.0060007501       2.34471716597
48.5060632579       2.27971604245
49.0061257657       2.20885829049
49.5061882735       2.13283286944
50.0062507813       2.05237427341
50.5063132892       1.96825121294
51.006375797       1.88125500473
51.5064383048       1.79218793849
52.0065008126       1.7018518786
52.5065633204       1.61103733961
53.0066258282       1.52051324835
53.506688336       1.43101757412
54.0067508439       1.34324897258
54.5068133517       1.25785955106
55.0068758595       1.17544882339
55.5069383673       1.09655888428
56.0070008751       1.02167079647
56.5070633829       0.951202150839
57.0071258907       0.885505731042
57.5071883985       0.824869190632
58.0072509064       0.769515633137
58.5073134142       0.719604973788
59.007375922       0.675235956097
59.5074384298       0.636448696553
60.0075009376       0.603227636077
60.5075634454       0.575504786684
61.0076259532       0.553163175241
61.5076884611       0.536040402252
62.0077509689       0.52393225125
62.5078134767       0.516596302542
63.0078759845       0.513755522769
63.5079384923       0.515101818079
64.0080010001       0.520299552844
64.5080635079       0.528989047253
65.0081260158       0.540790075123
65.5081885236       0.555305387875
66.0082510314       0.572124291494
66.5083135392       0.590826300729
67.008376047       0.610984888995
67.5084385548       0.632171343857
68.0085010626       0.653958727253
68.5085635704       0.675925927337
69.0086260783       0.697661775826
69.5086885861       0.718769191719
70.0087510939       0.73886930002
70.5088136017       0.75760546336
71.0088761095       0.77464715579
71.5089386173       0.789693602032
72.0090011251       0.802477102601
72.509063633       0.81276596555
73.0091261408       0.820366969413
73.5091886486       0.825127289002
74.0092511564       0.826935825929
74.5093136642       0.825723898642
75.009376172       0.821465261963
75.5094386798       0.81417544291
76.0095011876       0.803910397394
76.5095636955       0.790764510476
77.0096262033       0.774867980498
77.5096887111       0.756383643948
78.0097512189       0.73550331272
78.5098137267       0.712443707902
79.0098762345       0.687442084016
79.5099387423       0.660751644317
80.0100012502       0.632636851256
80.510063758       0.603368736341
81.0101262658       0.573220310629
81.5101887736       0.542462171012
82.0102512814       0.511358388725
82.5103137892       0.4801627555
83.010376297       0.449115449981
83.5104388049       0.418440172923
84.0105013127       0.38834178494
84.5105638205       0.359004465558
85.0106263283       0.330590397757
85.5106888361       0.30323896835
86.0107513439       0.277066462036
86.5108138517       0.25216621594
87.0108763595       0.228609192324
87.5109388674       0.206444919949
88.0110013752       0.185702749495
88.511063883       0.16639336537
89.0111263908       0.148510495152
89.5111888986       0.132032758702
90.0112514064       0.116925601292
90.5113139142       0.103143258904
91.0113764221       0.0906307086738
91.5114389299       0.0793255631822
92.0115014377       0.069159873536
92.5115639455       0.0600618127089
93.0116264533       0.0519572172007
93.5116889611       0.0447709714506
94.0117514689       0.0384282254677
94.5118139767       0.0328554416507
95.0118764846       0.0279812716437
95.5119389924       0.0237372682622
96.0120015002       0.0200584409621
96.512064008       0.0168836660304
97.0121265158       0.0141559646516
97.5121890236       0.0118226633093
98.0122515314       0.00983545166813
98.5123140393       0.00815035322587
99.0123765471       0.00672762371413
99.5124390549       0.00553159153411
100.012501563       0.00453045353715
100.512564071       0.00369603826983
101.012626578       0.00300354747882
101.512689086       0.00243128527562
102.012751594       0.00196038295434
102.512814102       0.00157452608133
103.01287661       0.00125968917354
103.512939117       0.00100388207882
104.013001625       0.000796911085835
104.513064133       0.000630156835331
105.013126641       0.000496370282202
105.513189149       0.000389487268483
106.013251656       0.000304461705983
106.513314164       0.000237116924727
107.013376672       0.0001840144092
107.51343918       0.000142338906257
108.013501688       0.000109798733706
108.513564196       8.45400342221e-05
109.013626703       6.50736931214e-05
109.513689211       5.02136592994e-05
110.013751719       3.90254659093e-05
110.513814227       3.07838321801e-05
111.013876735       2.49383322774e-05
111.513939242       2.10862348133e-05
112.01400175       1.89517421102e-05
112.514064258       1.83709873209e-05
113.014126766       1.92822765295e-05
113.514189274       2.17211893187e-05
114.014251781       2.58202727793e-05
114.514314289       3.18131787553e-05
115.014376797       4.00432006369e-05
115.514439305       5.09762626378e-05
116.014501813       6.52184995391e-05
116.514564321       8.35386364307e-05
117.014626828       0.000106895433807
117.514689336       0.000136470500892
118.014751844       0.000173706796291
118.514814352       0.000220353126605
119.01487686       0.000278514916907
119.514939367       0.000350711457951
120.015001875       0.000439939729922
120.515064383       0.000549744757507
121.015126891       0.000684296262913
121.515189399       0.000848471149507
122.015251906       0.00104794106756
122.515314414       0.00128926398524
123.015376922       0.00157997831422
123.51543943       0.00192869772458
124.015501938       0.00234520433458
124.515564446       0.00284053748749
125.015626953       0.00342707484294
125.515689461       0.00411860203096
126.015751969       0.00493036666213
126.515814477       0.005879112081
127.015876985       0.00698308591708
127.515939492       0.00826201825664
128.016002       0.00973706415761
128.516064508       0.01143070529
129.016127016       0.0133666057307
129.516189524       0.0155694174031
130.016252032       0.018064531347
130.516314539       0.0208777719466
131.016377047       0.0240350324484
131.516439555       0.0275618515498
132.016502063       0.0314829325355
132.516564571       0.0358216083439
133.016627078       0.0405992580273
133.516689586       0.0458346822732
134.016752094       0.0515434479161
134.516814602       0.0577372136105
135.01687711       0.064423050977
135.516939617       0.0716027774701
136.017002125       0.0792723188642
136.517064633       0.0874211205071
137.017127141       0.09603162726
137.517189649       0.105078852243
138.017252157       0.114530054072
138.517314664       0.124344541157
139.017377172       0.134473619768
139.51743968       0.14486070007
140.017502188       0.155441571027
140.517564696       0.166144851246
141.017627203       0.176892618395
141.517689711       0.187601214981
142.017752219       0.198182223171
142.517814727       0.208543596076
143.017877235       0.218590927753
143.517939742       0.22822883926
144.01800225       0.23736245363
144.518064758       0.245898928778
145.018127266       0.253749014326
145.518189774       0.260828596242
146.018252282       0.26706019215
146.518314789       0.272374360272
147.018377297       0.276710986265
147.518439805       0.280020414635
148.018502313       0.282264394964
148.518564821       0.283416817752
149.018627328       0.283464220081
149.518689836       0.282406047402
150.018752344       0.280254664333
150.518814852       0.277035114173
151.01887736       0.272784633675
151.518939867       0.267551936213
152.019002375       0.261396282648
152.519064883       0.254386364664
153.019127391       0.246599029973
153.519189899       0.238117882454
154.019252407       0.229031792798
154.519314914       0.219433356628
155.019377422       0.20941733729
155.51943993       0.199079129521
156.019502438       0.18851327826
156.519564946       0.177812083861
157.019627453       0.167064321198
157.519689961       0.15635409574
158.019752469       0.145759854775
158.519814977       0.135353566794
159.019877485       0.125200076821
159.519939992       0.115356640319
160.0200025       0.105872633441
160.520065008       0.0967894329182
161.020127516       0.0881404549816
161.520190024       0.0799513393804
162.020252532       0.0722402619747
162.520315039       0.0650183574605
163.020377547       0.0582902326142
163.520440055       0.0520545499453
164.020502563       0.0463046617996
164.520565071       0.0410292756769
165.020627578       0.0362131327435
165.520690086       0.0318376831353
166.020752594       0.0278817435667
166.520815102       0.0243221248844
167.02087761       0.0211342194436
167.520940118       0.0182925404468
168.021002625       0.0157712075969
168.521065133       0.0135443755097
169.021127641       0.0115866032546
169.521190149       0.00987316510498
170.021252657       0.00838030405396
170.521315164       0.00708543087315
171.021377672       0.0059672724586
171.52144018       0.00500597392336
172.021502688       0.00418315937631
172.521565196       0.00348195659148
173.021627703       0.00288699084627
173.521690211       0.00238435311881
174.021752719       0.00196154761337
174.521815227       0.00160742325697
175.021877735       0.00131209340876
175.521940243       0.00106684757173
176.02200275       0.000864058417244
176.522065258       0.000697086946708
177.022127766       0.000560188138323
177.522190274       0.000448418973178
178.022252782       0.000357550314321
178.522315289       0.000283983731612
179.022377797       0.000224674028472
179.522440305       0.000177057935842
180.022502813       0.00013898919376
180.522565321       0.000108680040175
181.022627828       8.46489671513e-05
181.522690336       6.5674482696e-05
182.022752844       5.07545279678e-05
182.522815352       3.90711399951e-05
183.02287786       2.99599148739e-05
183.522940368       2.28838113319e-05
184.023002875       1.74108354976e-05
184.523065383       1.3195161014e-05
185.023127891       9.96126103249e-06
185.523190399       7.49065728359e-06
186.023252907       5.61092401004e-06
186.523315414       4.18661911167e-06
187.023377922       3.11184987619e-06
187.52344043       2.30421497923e-06
188.023502938       1.69989718176e-06
188.523565446       1.24971175122e-06
189.023627953       9.15943727622e-07
189.523690461       6.69832575663e-07
190.023752969       4.89585478686e-07
190.523815477       3.5882062276e-07
191.023877985       2.65359453711e-07
191.523940493       2.00302289047e-07
192.024003       1.57335093941e-07
192.524065508       1.32226974787e-07
193.024128016       1.22488311312e-07
193.524190524       1.27168754995e-07
194.024253032       1.46782891526e-07
194.524315539       1.83359529461e-07
195.024378047       2.40618676816e-07
195.524440555       3.24288656122e-07
196.024503063       4.42584859211e-07
196.524565571       6.0688175356e-07
197.024628079       8.32621353224e-07
197.524690586       1.1405149308e-06
198.024753094       1.55811079437e-06
198.524815602       2.12182006682e-06
199.02487811       2.87951523646e-06
199.524940618       3.89384353288e-06
200.025003125       5.24642975181e-06
200.525065633       7.04318194997e-06
201.025128141       9.42095953155e-06
201.525190649       1.25559178789e-05
202.025253157       1.66739082544e-05
202.525315664       2.20633878493e-05
203.025378172       2.90913844705e-05
203.52544068       3.82231656548e-05
204.025503188       5.00463855801e-05
204.525565696       6.53006280746e-05
205.025628204       8.4913433938e-05
205.525690711       0.000110044100004
206.025753219       0.000142136770978
206.525815727       0.000182984619151
207.025878235       0.000234807228673
207.525940743       0.000300343678514
208.02600325       0.000382964261085
208.526065758       0.000486804292646
209.026128266       0.000616924079411
209.526190774       0.000779499812952
210.026253282       0.000982050994723
210.526315789       0.00123371094683
211.026378297       0.0015455480695
211.526440805       0.00193094676821
212.026503313       0.00240605840623
212.526565821       0.00299033424811
213.026628329       0.00370715414609
213.526690836       0.00458456667699
214.026753344       0.00565615853942
214.526815852       0.00696207323594
215.02687836       0.00855020133439
215.526940868       0.0104775668509
216.027003375       0.012811936416
216.527065883       0.0156336797408
217.027128391       0.0190379113191
217.527190899       0.0231369440803
218.027253407       0.028063085603
218.527315914       0.0339718062273
219.027378422       0.0410453056632
219.52744093       0.0494965001376
220.027503438       0.0595734454075
220.527565946       0.071564201736
221.027628454       0.0858021348445
221.527690961       0.102671631617
222.027753469       0.122614190707
222.527815977       0.146134826049
223.027878485       0.173808695546
223.527940993       0.206287838132
224.0280035       0.244307870148
224.528066008       0.28869445731
225.028128516       0.34036934204
225.528191024       0.400355668833
226.028253532       0.469782313897
226.52831604       0.549886891117
227.028378547       0.642017076433
227.528441055       0.747629868935
228.028503563       0.868288391681
228.528566071       1.00565583081
229.028628579       1.16148612009
229.528691086       1.33761100212
230.028753594       1.5359231384
230.528816102       1.75835500086
231.02887861       2.00685335692
231.528941118       2.28334926039
232.029003625       2.58972358034
232.529066133       2.92776823768
233.029128641       3.29914347386
233.529191149       3.70533164165
234.029253657       4.14758818333
234.529316165       4.62689063781
235.029378672       5.14388669176
235.52944118       5.69884245199
236.029503688       6.29159225983
236.529566196       6.92149148634
237.029628704       7.58737383045
237.529691211       8.28751468561
238.029753719       9.01960213619
238.529816227       9.78071708891
239.029878735       10.5673239333
239.529941243       11.3752729572
240.03000375       12.1998155195
240.530066258       13.0356327058
241.030128766       13.8768778699
241.530191274       14.7172330997
242.030253782       15.5499792582
242.53031629       16.3680788379
243.030378797       17.1642704596
243.530441305       17.9311734463
244.030503813       18.6614005286
244.530566321       19.3476764099
245.030628829       19.982959642
245.530691336       20.5605650585
246.030753844       21.0742838794
246.530816352       21.5184985653
247.03087886       21.8882895423
247.530941368       22.1795310616
248.031003875       22.3889736891
248.531066383       22.5143112278
249.031128891       22.554230268
249.531191399       22.5084410021
250.031253907       22.3776884372
250.531316415       22.1637436583
251.031378922       21.8693753278
251.53144143       21.4983021332
252.031503938       21.0551273903
252.531566446       20.5452574683
253.031628954       19.9748060982
