#  x                 y             frequency           intensity
0.0       9.91904306562e-05       28.64       0.06016
0.500062507813       0.000123832803012       45.27       0.42628
1.00012501563       0.000153995752582       61.45       0.43438
1.50018752344       0.000190760937082       67.33       0.77933
2.00025003125       0.000235384818074       173.68       2.08941
2.50031253907       0.000289318672393       185.80       2.42335
3.00037504688       0.000354229161254       201.74       25.76708
3.50043755469       0.000432019072526       273.03       4.31914
4.00050006251       0.000524847763203       302.04       6.84570
4.50056257032       0.000635150738226       333.78       97.77126
5.00062507813       0.000765657711735       359.23       1.73110
5.50068758595       0.000919408411516       391.82       13.01093
6.00075009376       0.00109976531168       421.92       1.23718
6.50081260158       0.00131042241776       431.29       7.63872
7.00087510939       0.00155540918838       488.23       15.32478
7.5009376172       0.00183908866474       504.12       9.61853
8.00100012502       0.00216614889963       554.41       16.37184
8.50106263283       0.00254158683828       599.19       116.17227
9.00112514064       0.00297068390885       655.31       6.73935
9.50118764846       0.00345897273715       660.20       3.71970
10.0012501563       0.00401219461001       718.34       10.59499
10.5013126641       0.00463624757866       747.47       4.71786
11.0013751719       0.00533712541469       793.93       38.04813
11.5014376797       0.00612084800618       810.83       18.86425
12.0015001875       0.00699338420296       838.62       59.97026
12.5015626953       0.00796056857892       847.03       51.07151
13.0016252032       0.00902801406409       868.49       47.81178
13.501687711       0.0102010228926       886.87       3.00940
14.0017502188       0.0114844987966       918.87       8.08898
14.5018127266       0.0128828638282       944.67       16.14085
15.0018752344       0.0143999835843       969.20       1.70330
15.5019377422       0.0160391049241       992.10       21.48573
16.00200025       0.0178028104636       1036.62       0.39702
16.5020627578       0.0196929942006       1116.43       38.82342
17.0021252657       0.0217108625165       1124.90       141.78907
17.5021877735       0.0238569645199       1148.23       91.37324
18.0022502813       0.0261312552025       1160.61       15.96356
18.5023127891       0.0285331941751       1190.36       190.80984
19.0023752969       0.0310618818231       1199.37       6.30884
19.5024378047       0.0337162335785       1235.78       0.75032
20.0025003125       0.0364951916627       1265.33       7.26030
20.5025628204       0.0393979721283       1286.30       104.01395
21.0026253282       0.042424343368       1301.88       3.42810
21.502687836       0.0455749304935       1339.05       30.04496
22.0027503438       0.0488515381933       1354.87       15.22158
22.5028128516       0.0522574829029       1359.94       6.54309
23.0028753594       0.0557979234553       1367.25       25.38962
23.5029378672       0.0594801778894       1420.93       6.06625
24.003000375       0.0633140128739       1474.99       16.51029
24.5030628829       0.0673118913268       1490.20       5.12969
25.0031253907       0.0714891633632       1551.60       105.06018
25.5031878985       0.0758641857515       1635.69       14.28750
26.0032504063       0.0804583556667       1658.72       46.55067
26.5033129141       0.0852960457391       1670.04       30.27893
27.0033754219       0.0904044292355       1805.09       312.65519
27.5034379297       0.0958131866873       3035.59       17.63014
28.0035004376       0.101554088364       3069.11       8.24596
28.5035629454       0.107660450649       3086.32       15.09196
29.0036254532       0.114166468512       3148.34       17.73047
29.503687961       0.121106430833       3166.98       13.67170
30.0037504688       0.128513830089       3186.06       5.79426
30.5038129766       0.136420382878       3201.13       5.40270
31.0038754844       0.144854982552       3482.86       3.44123
31.5039379922       0.153842609861       3558.98       6.40710
32.0040005001       0.163403231657       3715.42       59.73121
32.5040630079       0.173550721212       3799.93       62.30778
33.0041255157       0.18429183639
33.5041880235       0.195625293595
34.0042505313       0.207540975908
34.5043130391       0.220019313057
35.0043755469       0.233030868728
35.5044380548       0.246536167162
36.0045005626       0.260485786027
36.5045630704       0.274820736317
37.0046255782       0.289473142492
37.504688086       0.304367227613
38.0047505938       0.319420598889
38.5048131016       0.334545819209
39.0048756095       0.349652240173
39.5049381173       0.364648062221
40.0050006251       0.379442577955
40.5050631329       0.393948546151
41.0051256407       0.408084636484
41.5051881485       0.421777879041
42.0052506563       0.434966048494
42.5053131641       0.44759991065
43.005375672       0.459645259065
43.5054381798       0.471084671674
44.0055006876       0.481918921902
44.5055631954       0.492167985515
45.0056257032       0.501871593238
45.505688211       0.511089289909
46.0057507188       0.519899973145
46.5058132267       0.528400898017
47.0058757345       0.536706148509
47.5059382423       0.544944591277
48.0060007501       0.553257341896
48.5060632579       0.561794787991
49.0061257657       0.570713226924
49.5061882735       0.580171187685
50.0062507813       0.590325516931
50.5063132892       0.601327317413
51.006375797       0.613317833111
51.5064383048       0.626424379065
52.0065008126       0.640756415022
52.5065633204       0.656401860652
53.0066258282       0.673423746147
53.506688336       0.691857285732
54.0067508439       0.711707453093
54.5068133517       0.732947127133
55.0068758595       0.755515864257
55.5069383673       0.779319339598
56.0070008751       0.80422948485
56.5070633829       0.830085334785
57.0071258907       0.856694578616
57.5071883985       0.883835796442
58.0072509064       0.911261345416
58.5073134142       0.938700845421
59.007375922       0.965865200193
59.5074384298       0.992451077357
60.0075009376       1.01814576
60.5075634454       1.04263227345
61.0076259532       1.06559468405
61.5076884611       1.08672346221
62.0077509689       1.10572079972
62.5078134767       1.12230577178
63.0078759845       1.13621923675
63.5079384923       1.14722837224
64.0080010001       1.15513075352
64.5080635079       1.15975789019
65.0081260158       1.16097814914
65.5081885236       1.15869900514
66.0082510314       1.15286857584
66.5083135392       1.14347641389
67.008376047       1.13055354585
67.5084385548       1.11417176436
68.0085010626       1.09444219734
68.5085635704       1.07151319359
69.0086260783       1.04556757968
69.5086885861       1.01681935621
70.0087510939       0.985509913437
70.5088136017       0.951903855512
71.0088761095       0.916284529627
71.5089386173       0.878949360773
72.0090011251       0.840205094389
72.509063633       0.800363048195
73.0091261408       0.759734470768
73.5091886486       0.718626098336
74.0092511564       0.677335992889
74.5093136642       0.636149734484
75.009376172       0.595337028907
75.5094386798       0.55514877892
76.0095011876       0.515814653841
76.5095636955       0.477541178358
77.0096262033       0.440510347909
77.5096887111       0.404878764889
78.0097512189       0.370777277903
78.5098137267       0.338311095457
79.0098762345       0.307560336148
79.5099387423       0.278580969829
80.0100012502       0.25140609841
80.510063758       0.22604752098
81.0101262658       0.202497525876
81.5101887736       0.18073085188
82.0102512814       0.160706762034
82.5103137892       0.142371176205
83.010376297       0.125658812443
83.5104388049       0.110495292051
84.0105013127       0.0967991689176
84.5105638205       0.0844838497428
85.0106263283       0.0734593781806
85.5106888361       0.063634062262
86.0107513439       0.0549159306952
86.5108138517       0.0472140094869
87.0108763595       0.0404394157047
87.5109388674       0.0345062699865
88.0110013752       0.0293324335192
88.511063883       0.0248400786297
89.0111263908       0.0209561048267
89.5111888986       0.0176124141374
90.0112514064       0.014746060915
90.5113139142       0.0122992920265
91.0113764221       0.0102194935105
91.5114389299       0.00845905951759
92.0115014377       0.00697519868001
92.5115639455       0.00572969208547
93.0116264533       0.00468861583337
93.5116889611       0.00382203980322
94.0117514689       0.00310371282921
94.5118139767       0.00251074301259
95.0118764846       0.00202328046265
95.5119389924       0.00162420837816
96.0120015002       0.00129884709477
96.512064008       0.00103467455155
97.0121265158       0.000821065587061
97.5121890236       0.00064905156735
98.0122515314       0.000511101078006
98.5123140393       0.000400921774982
99.0123765471       0.000313282977574
99.5124390549       0.000243858191344
100.012501563       0.000189086456982
100.512564071       0.000146051220228
101.012626578       0.000112375294634
101.512689086       8.61304303321e-05
102.012751594       6.57599954632e-05
102.512814102       5.00133114101e-05
103.01287661       3.78902480644e-05
103.512939117       2.85947722316e-05
104.013001625       2.14962433092e-05
104.513064133       1.60973592728e-05
105.013126641       1.20077676737e-05
105.513189149       8.92246684661e-06
106.013251656       6.60422885718e-06
106.513314164       4.8693757897e-06
107.013376672       3.57633339345e-06
107.51343918       2.61647008953e-06
108.013501688       1.90680457034e-06
108.513564196       1.38423175754e-06
109.013626703       1.00097504027e-06
109.513689211       7.21023005289e-07
110.013751719       5.17351923025e-07
110.513814227       3.69771766512e-07
111.013876735       2.63264230785e-07
111.513939242       1.86706801456e-07
112.01400175       1.31898070889e-07
112.514064258       9.28168515781e-08
113.014126766       6.50617652338e-08
113.514189274       4.54294082551e-08
114.014251781       3.15983639363e-08
114.514314289       2.18936432739e-08
115.014376797       1.51119278167e-08
115.514439305       1.03925463123e-08
116.014501813       7.12268240847e-09
116.514564321       4.86808307004e-09
117.014626828       3.32268110402e-09
117.514689336       2.27219449846e-09
118.014751844       1.56802907284e-09
118.514814352       1.108777056e-09
119.01487686       8.27343320807e-10
119.514939367       6.82300022614e-10
120.015001875       6.52515483889e-10
120.515064383       7.34462443476e-10
121.015126891       9.41916684055e-10
121.515189399       1.30803854612e-09
122.015251906       1.89011455871e-09
122.515314414       2.77755273701e-09
123.015376922       4.10410431651e-09
123.51543943       6.06576343052e-09
124.015501938       8.94641912745e-09
124.515564446       1.31541569509e-08
125.015626953       1.92722006969e-08
125.515689461       2.8129938782e-08
126.015751969       4.09014082071e-08
126.515814477       5.92411573122e-08
127.015876985       8.54707591641e-08
127.515939492       1.22833629528e-07
128.016002       1.75841501865e-07
128.516064508       2.50743278194e-07
129.016127016       3.561564392e-07
129.516189524       5.03913281009e-07
130.016252032       7.10189575862e-07
130.516314539       9.97002573317e-07
131.016377047       1.39418944155e-06
131.516439555       1.94200730916e-06
132.016502063       2.69453316759e-06
132.516564571       3.72408734282e-06
133.016627078       5.12695949336e-06
133.516689586       7.0307827172e-06
134.016752094       9.6039810255e-06
134.516814602       1.30678098865e-05
135.01687711       1.771162046e-05
135.516939617       2.39121071246e-05
136.017002125       3.21574463007e-05
136.517064633       4.3077403376e-05
137.017127141       5.74806741459e-05
137.517189649       7.64009372188e-05
138.017252157       0.000101153322864
138.517314664       0.000133403249056
139.017377172       0.000175249832573
139.51743968       0.000229326345569
140.017502188       0.000298920447375
140.517564696       0.000388117166076
141.017627203       0.000501967820466
141.517689711       0.000646688243008
142.017752219       0.000829889767912
142.517814727       0.00106084646172
143.017877235       0.00135080197028
143.517939742       0.00171331910662
144.01800225       0.002164674878
144.518064758       0.00272430301606
145.018127266       0.00341528519966
145.518189774       0.0042648910179
146.018252282       0.00530516528513
146.518314789       0.00657355957378
147.018377297       0.00811360276388
147.518439805       0.00997560302515
148.018502313       0.0122173709644
148.518564821       0.0149049507237
149.018627328       0.0181133426578
149.518689836       0.0219271979311
150.018752344       0.0264414620494
150.518814852       0.0317619411156
151.01887736       0.0380057615992
151.518939867       0.045301691825
152.019002375       0.0537902913838
152.519064883       0.063623853451
153.019127391       0.0749661047666
153.519189899       0.0879916289792
154.019252407       0.102884981359
154.519314914       0.119839466711
155.019377422       0.139055557779
155.51943993       0.160738938561
156.019502438       0.185098165837
156.519564946       0.212341952663
157.019627453       0.242676089549
157.519689961       0.276300032209
158.019752469       0.313403198864
158.519814977       0.35416103463
159.019877485       0.398730915035
159.519939992       0.447247974654
160.0200025       0.49982095958
160.520065008       0.556528213247
161.020127516       0.617413913533
161.520190024       0.682484684248
162.020252532       0.751706705728
162.520315039       0.82500344674
163.020377547       0.902254133036
163.520440055       0.983293056507
164.020502563       1.0679098131
164.520565071       1.15585053772
165.020627578       1.24682018078
165.520690086       1.3404858445
166.020752594       1.43648116876
166.520815102       1.53441172676
167.02087761       1.63386136177
167.520940118       1.73439936898
168.021002625       1.83558840183
168.521065133       1.93699296188
169.021127641       2.0381883166
169.521190149       2.1387696804
170.021252657       2.23836149226
170.521315164       2.33662662877
171.021377672       2.4332754033
171.52144018       2.52807422077
172.021502688       2.62085378158
172.521565196       2.71151675699
173.021627703       2.80004488844
173.521690211       2.88650549528
174.021752719       2.97105740411
174.521815227       3.0539563388
175.021877735       3.13555982875
175.521940243       3.21633170313
176.02200275       3.29684623895
176.522065258       3.3777920183
177.022127766       3.45997552598
177.522190274       3.54432448099
178.022252782       3.63189084644
178.522315289       3.72385340219
179.022377797       3.82151969704
179.522440305       3.92632712415
180.022502813       4.03984278934
180.522565321       4.16376177133
181.022627828       4.29990331077
181.522690336       4.45020441567
182.022752844       4.61671034047
182.522815352       4.80156138879
183.02287786       5.00697550971
183.522940368       5.23522620889
184.023002875       5.4886153792
184.523065383       5.76944077387
185.023127891       6.07995799596
185.523190399       6.42233706013
186.023252907       6.79861379151
186.523315414       7.21063655654
187.023377922       7.66000906434
187.52344043       8.14803022588
188.023502938       8.67563230162
188.523565446       9.24331879613
189.023627953       9.85110375872
189.523690461       10.4984543115
190.023752969       11.1842383406
190.523815477       11.9066793403
191.023877985       12.6633203933
191.523940493       13.4509991844
192.024003       14.2658357921
192.524065508       15.1032347723
193.024128016       15.9579027424
193.524190524       16.8238823108
194.024253032       17.6946027674
194.524315539       18.5629474855
195.024378047       19.4213374835
195.524440555       20.2618300856
196.024503063       21.0762311113
196.524565571       21.8562185442
197.024628079       22.5934751881
197.524690586       23.2798274439
198.024753094       23.9073870372
198.524815602       24.4686923202
199.02487811       24.956845664
199.524940618       25.3656434597
200.025003125       25.6896953642
200.525065633       25.9245296493
201.025128141       26.066681846
201.525190649       26.1137643028
202.025253157       26.0645147791
202.525315664       25.9188227705
203.025378172       25.677732875
203.52544068       25.3434251437
204.025503188       24.9191730008
204.525565696       24.409279926
205.025628204       23.8189966664
205.525690711       23.1544212507
206.025753219       22.4223845021
206.525815727       21.6303240859
207.025878235       20.786150352
207.525940743       19.8981073624
208.02600325       18.9746325034
208.526065758       18.0242179958
209.026128266       17.0552774246
209.526190774       16.0760201379
210.026253282       15.0943360093
210.526315789       14.1176926563
211.026378297       13.1530467512
211.526440805       12.2067705934
212.026503313       11.284594628
212.526565821       10.3915661318
213.026628329       9.53202383891
213.526690836       8.70958788093
214.026753344       7.92716405535
214.526815852       7.18696114481
215.02687836       6.49051977262
215.526940868       5.838751113
216.027003375       5.23198367149
216.527065883       4.6700163104
217.027128391       4.15217571235
217.527190899       3.67737654424
218.027253407       3.24418269804
218.527315914       2.85086813369
219.027378422       2.49547602612
219.52744093       2.17587511219
220.027503438       1.88981233711
220.527565946       1.63496110546
221.027628454       1.40896464155
221.527690961       1.20947415311
222.027753469       1.03418166493
222.527815977       0.880847542798
223.027878485       0.74732285975
223.527940993       0.631566865192
224.0280035       0.531659903229
224.528066008       0.445812189059
225.028128516       0.372368894061
225.528191024       0.309812012352
226.028253532       0.256759486808
226.52831604       0.211962063246
227.028378547       0.174298320329
227.528441055       0.142768292468
228.028503563       0.11648606601
228.528566071       0.094671687706
229.028628579       0.0766426808907
229.528691086       0.061805420813
230.028753594       0.049646577526
230.528816102       0.0397247939723
231.02887861       0.0316627291646
231.528941118       0.0251395623265
232.029003625       0.0198840238656
232.529066133       0.0156679932504
233.029128641       0.0123006822451
233.529191149       0.00962340433804
234.029253657       0.00750491733569
234.529316165       0.00583731563203
235.029378672       0.00453244122405
235.52944118       0.00351877772642
236.029503688       0.00273878903375
236.529566196       0.00214666349775
237.029628704       0.00170642516276
237.529691211       0.00139037540074
238.029753719       0.00117783090847
238.529816227       0.00105412721254
239.029878735       0.00100986034767
239.529941243       0.00104034303766
240.03000375       0.00114525535656
240.530066258       0.00132847334221
241.030128766       0.00159806226393
241.530191274       0.00196642411101
242.030253782       0.00245059128641
242.53031629       0.00307266038596
243.030378797       0.00386036125001
243.530441305       0.00484775713088
244.030503813       0.00607607177041
244.530566321       0.00759463837656
245.030628829       0.00946196388676
245.530691336       0.0117468994766
246.030753844       0.0145299050016
246.530816352       0.0179043909518
247.03087886       0.0219781165852
247.530941368       0.0268746172438
248.031003875       0.0327346275559
248.531066383       0.0397174604099
249.031128891       0.0480022944632
249.531191399       0.0577893157345
250.031253907       0.0693006518239
250.531316415       0.0827810308436
251.031378922       0.0984980915928
251.53144143       0.116742267309
252.031503938       0.13782616289
252.531566446       0.162083345277
253.031628954       0.18986646916
253.531691461       0.22154466568
254.031753969       0.257500130815
