#  x                 y             frequency           intensity
0.0       3.61498691966e-06       41.38       2.33214
0.500062507813       4.985166831e-06       49.13       0.09483
1.00012501563       6.84787876703e-06       82.97       3.71273
1.50018752344       9.36991922776e-06       89.34       2.42887
2.00025003125       1.27708283543e-05       174.70       0.76468
2.50031253907       1.73382693489e-05       211.30       9.46992
3.00037504688       2.34474652735e-05       312.37       13.21231
3.50043755469       3.15856310713e-05       330.54       11.76886
4.00050006251       4.23825166016e-05       339.07       55.22013
4.50056257032       5.66483773459e-05       345.03       45.80253
5.00062507813       7.54209131422e-05       378.36       4.56241
5.50068758595       0.000100022960698       424.84       1.02104
6.00075009376       0.000132132990196       433.49       13.90016
6.50081260158       0.000173870735802       434.19       0.88635
7.00087510939       0.000227900578001       512.70       12.63028
7.5009376172       0.000297555583573       531.88       2.95425
8.00100012502       0.00038698538512       557.12       8.06635
8.50106263283       0.00050133133141       603.30       6.47471
9.00112514064       0.000646932544231       659.93       0.78913
9.50118764846       0.00083156665485       728.97       7.17671
10.0012501563       0.00106472903799       734.74       21.17880
10.5013126641       0.00135795428407       775.55       12.94676
11.0013751719       0.00172518341911       813.70       27.42044
11.5014376797       0.00218317996065       837.45       6.05811
12.0015001875       0.00275199725138       847.56       84.20354
12.5015626953       0.00345549860221       862.01       51.68552
13.0016252032       0.00432193056819       872.00       50.28905
13.501687711       0.00538454814233       898.24       41.01346
14.0017502188       0.00668228875682       926.93       3.78851
14.5018127266       0.00826048971262       931.03       12.89082
15.0018752344       0.0101716410108       992.05       0.72954
15.5019377422       0.0124761625416       1023.89       41.52214
16.00200025       0.0152431912303       1036.79       3.53933
16.5020627578       0.0185513600881       1086.34       3.50202
17.0021252657       0.0224895472519       1133.93       20.87173
17.5021877735       0.0271575691101       1168.61       10.38538
18.0022502813       0.0326667876408       1187.36       159.01236
18.5023127891       0.0391405982809       1200.85       6.27162
19.0023752969       0.0467147611839       1207.24       29.34197
19.5024378047       0.0555375358212       1222.82       8.79066
20.0025003125       0.0657695767527       1241.71       1.83916
20.5025628204       0.0775835472765       1285.66       13.92878
21.0026253282       0.0911634078111       1290.47       92.44396
21.502687836       0.106703337485       1350.43       3.61868
22.0027503438       0.124406250734       1367.79       39.93959
22.5028128516       0.144481875919       1370.63       14.28076
23.0028753594       0.16714437017       1397.25       8.23871
23.5029378672       0.19260945401       1415.77       379.38316
24.003000375       0.221091060642       1475.25       15.46817
24.5030628829       0.252797508209       1488.38       9.77563
25.0031253907       0.28792721848       1551.65       97.55779
25.5031878985       0.326664022116       1631.55       14.54018
26.0032504063       0.369172108483       1653.87       22.85025
26.5033129141       0.415590696331       1659.29       45.40353
27.0033754219       0.466028520122       1829.15       266.46049
27.5034379297       0.520558244467       3040.32       11.28831
28.0035004376       0.579210935442       3052.48       34.36486
28.5035629454       0.64197073163       3100.48       4.12470
29.0036254532       0.708769868814       3149.21       16.32015
29.503687961       0.779484219567       3166.22       12.65496
30.0037504688       0.853929511814       3186.12       0.98445
30.5038129766       0.931858388276       3200.33       2.62541
31.0038754844       1.01295846099       3419.16       231.65996
31.5039379922       1.09685150163       3482.42       16.37325
32.0040005001       1.18309388914       3580.61       22.75761
32.5040630079       1.27117841109       3798.97       65.42917
33.0041255157       1.36053748523
33.5041880235       1.45054783264
34.0042505313       1.54053659576
34.5043130391       1.62978885334
35.0043755469       1.71755644205
35.5044380548       1.80306795274
36.0045005626       1.8855397284
36.5045630704       1.96418765426
37.0046255782       2.03823949767
37.504688086       2.10694752945
38.0047505938       2.16960113921
38.5048131016       2.22553914707
39.0048756095       2.27416151205
39.5049381173       2.31494014604
40.0050006251       2.34742855873
40.5050631329       2.37127008587
41.0051256407       2.38620448709
41.5051881485       2.39207274186
42.0052506563       2.3888199192
42.5053131641       2.37649604892
43.005375672       2.35525497616
43.5054381798       2.32535123601
44.0055006876       2.28713503817
44.5055631954       2.24104550216
45.0056257032       2.18760232872
45.505688211       2.12739613231
46.0057507188       2.06107769074
46.5058132267       1.98934639137
47.0058757345       1.91293816674
47.5059382423       1.83261321745
48.0060007501       1.7491438159
48.5060632579       1.66330247107
49.0061257657       1.57585071438
49.5061882735       1.48752873897
50.0062507813       1.39904609196
50.5063132892       1.31107358255
51.006375797       1.22423652913
51.5064383048       1.13910942834
52.0065008126       1.05621208822
52.5065633204       0.97600722948
53.0066258282       0.898899522086
53.506688336       0.825235992556
54.0067508439       0.755307708553
54.5068133517       0.689352624157
55.0068758595       0.627559450501
55.5069383673       0.57007240288
56.0070008751       0.516996666551
56.5070633829       0.468404419001
57.0071258907       0.424341245882
57.5071883985       0.384832790547
58.0072509064       0.349891482558
58.5073134142       0.319523197965
59.007375922       0.293733713008
59.5074384298       0.272534822631
60.0075009376       0.255950005249
60.5075634454       0.244019525415
61.0076259532       0.236804875927
61.5076884611       0.234392470605
62.0077509689       0.23689650837
62.5078134767       0.244460938511
63.0078759845       0.257260466421
63.5079384923       0.27550054889
64.0080010001       0.299416338626
64.5080635079       0.329270549397
65.0081260158       0.365350226409
65.5081885236       0.407962421545
66.0082510314       0.457428790056
66.5083135392       0.514079144416
67.008376047       0.578244022115
67.5084385548       0.650246347189
68.0085010626       0.730392289677
68.5085635704       0.818961452626
69.0086260783       0.91619654193
69.5086885861       1.02229269941
70.0087510939       1.13738670318
70.5088136017       1.26154626056
71.0088761095       1.39475963625
71.5089386173       1.53692587177
72.0090011251       1.68784585931
72.509063633       1.84721453464
73.0091261408       2.01461444722
73.5091886486       2.18951095252
74.0092511564       2.37124924962
74.5093136642       2.55905345826
75.009376172       2.75202789272
75.5094386798       2.94916064624
76.0095011876       3.14932955047
76.5095636955       3.35131052035
77.0096262033       3.55378823741
77.5096887111       3.75536906585
78.0097512189       3.9545960369
78.5098137267       4.1499656804
79.0098762345       4.33994643001
79.5099387423       4.52299828093
80.0100012502       4.69759333965
80.510063758       4.86223687358
81.0101262658       5.0154884474
81.5101887736       5.15598272167
82.0102512814       5.28244948986
82.5103137892       5.39373254097
83.010376297       5.48880695729
83.5104388049       5.56679448926
84.0105013127       5.62697669103
84.5105638205       5.66880555019
85.0106263283       5.69191140131
85.5106888361       5.69610797432
86.0107513439       5.68139449266
86.5108138517       5.64795480197
87.0108763595       5.59615357482
87.5109388674       5.52652969972
88.0110013752       5.43978702102
88.511063883       5.3367826499
89.0111263908       5.21851311294
89.5111888986       5.0860986438
90.0112514064       4.94076595402
90.5113139142       4.78382984083
91.0113764221       4.61667400221
91.5114389299       4.44073143324
92.0115014377       4.25746477267
92.5115639455       4.06834695521
93.0116264533       3.87484250439
93.5116889611       3.67838977313
94.0117514689       3.48038440623
94.5118139767       3.28216426112
95.0118764846       3.08499598199
95.5119389924       2.89006337907
96.0120015002       2.69845772017
96.512064008       2.51116999696
97.0121265158       2.32908518507
97.5121890236       2.15297847569
98.0122515314       1.98351341777
98.5123140393       1.82124187538
99.0123765471       1.6666056742
99.5124390549       1.51993978559
100.012501563       1.38147687651
100.512564071       1.25135303785
101.012626578       1.12961449478
101.512689086       1.01622509733
102.012751594       0.911074390477
102.512814102       0.813986067633
103.01287661       0.724726620693
103.512939117       0.643014012449
104.013001625       0.568526212812
104.513064133       0.500909458228
105.013126641       0.439786113232
105.513189149       0.38476203366
106.013251656       0.335433351922
106.513314164       0.291392625427
107.013376672       0.252234309144
107.51343918       0.217559531986
108.013501688       0.186980173814
108.513564196       0.160122255062
109.013626703       0.13662866418
109.513689211       0.116161258983
110.013751719       0.0984023867703
110.513814227       0.0830558745564
111.013876735       0.0698475451749
111.513939242       0.0585253174809
112.01400175       0.048858949554
112.514064258       0.0406394829559
113.014126766       0.0336784439311
113.514189274       0.0278068542191
114.014251781       0.0228741001046
114.514314289       0.0187467037118
115.014376797       0.0153070355664
115.514439305       0.0124520022921
116.014501813       0.0100917381649
116.514564321       0.00814832424098
117.014626828       0.00655455404088
117.514689336       0.00525276038122
118.014751844       0.00419371397499
118.514814352       0.00333560089974
119.01487686       0.00264308298298
119.514939367       0.00208644257392
120.015001875       0.00164081104462
120.515064383       0.00128547866655
121.015126891       0.00100328220427
121.515189399       0.000780065615914
122.015251906       0.000604208607962
122.515314414       0.00046621741256
123.015376922       0.000358371997659
123.51543943       0.000274423940116
124.015501938       0.000209339351923
124.515564446       0.000159081514777
125.015626953       0.000120428217877
125.515689461       9.08191818682e-05
126.015751969       6.82293665687e-05
126.515814477       5.1064383673e-05
127.015876985       3.80746542041e-05
127.515939492       2.82853535798e-05
128.016002       2.09395672691e-05
128.516064508       1.54524322249e-05
129.016127016       1.13743607435e-05
129.516189524       8.3617330534e-06
130.016252032       6.15370299297e-06
130.516314539       4.55398888872e-06
131.016377047       3.41672118806e-06
131.516439555       2.63559205021e-06
132.016502063       2.13570277557e-06
132.516564571       1.86763564337e-06
133.016627078       1.8033904561e-06
133.516689586       1.93392584229e-06
134.016752094       2.26813402718e-06
134.516814602       2.83315807445e-06
135.01687711       3.67603508323e-06
135.516939617       4.8667198393e-06
136.017002125       6.50261309015e-06
136.517064633       8.71478881177e-06
137.017127141       1.16761871567e-05
137.517189649       1.56121154947e-05
138.017252157       2.0813479995e-05
138.517314664       2.76532550318e-05
139.017377172       3.66067873094e-05
139.51743968       4.82766253769e-05
140.017502188       6.3422661829e-05
140.517564696       8.29984728455e-05
141.017627203       0.000108194834782
141.517689711       0.000140491486202
142.017752219       0.00018171828088
142.517814727       0.000234126936461
143.017877235       0.000300474617084
143.517939742       0.000384120587441
144.01800225       0.000489137130452
144.518064758       0.000620435820113
145.018127266       0.000783910073169
145.518189774       0.000986594656233
146.018252282       0.00123684248664
146.518314789       0.00154451862457
147.018377297       0.00192121080081
147.518439805       0.00238045515201
148.018502313       0.00293797503838
148.518564821       0.00361192989876
149.018627328       0.00442317005958
149.518689836       0.00539549226987
150.018752344       0.00655588950395
150.518814852       0.00793478728404
151.01887736       0.00956625746403
151.518939867       0.0114881991285
152.019002375       0.0137424750534
152.519064883       0.0163749911077
153.019127391       0.0194357051251
153.519189899       0.0229785512064
154.019252407       0.0270612652198
154.519314914       0.0317450975126
155.019377422       0.0370943996179
155.51943993       0.0431760730969
156.019502438       0.0500588706518
156.519564946       0.0578125423218
157.019627453       0.0665068229355
157.519689961       0.0762102610424
158.019752469       0.0869888942186
158.519814977       0.0989047808856
159.019877485       0.112014404465
159.519939992       0.126366971676
160.0200025       0.142002632896
160.520065008       0.158950658503
161.020127516       0.177227610839
161.520190024       0.196835556492
162.020252532       0.217760367905
162.520315039       0.239970166446
163.020377547       0.263413960905
163.520440055       0.288020535614
164.020502563       0.313697640898
164.520565071       0.34033153519
165.020627578       0.367786922856
165.520690086       0.395907324535
166.020752594       0.424515907786
166.520815102       0.453416795097
167.02087761       0.48239685425
167.520940118       0.51122796284
168.021002625       0.539669724923
168.521065133       0.567472603759
169.021127641       0.59438142084
169.521190149       0.620139158504
170.021252657       0.644490991848
170.521315164       0.667188465886
171.021377672       0.687993726475
171.52144018       0.70668370872
172.021502688       0.723054184783
172.521565196       0.736923574367
173.021627703       0.748136425758
173.521690211       0.756566483113
174.021752719       0.762119266525
174.521815227       0.764734104964
175.021877735       0.764385578114
175.521940243       0.761084340852
176.02200275       0.754877323119
176.522065258       0.745847317514
177.022127766       0.734111986468
177.522190274       0.719822339654
178.022252782       0.70316074965
178.522315289       0.684338589253
179.022377797       0.663593586599
179.522440305       0.641187004049
180.022502813       0.617400753096
180.522565321       0.592534560263
181.022627828       0.566903297831
181.522690336       0.540834588211
182.022752844       0.514666782056
182.522815352       0.488747397737
183.02287786       0.46343209414
183.522940368       0.439084229872
184.023002875       0.416075040633
184.523065383       0.394784442896
185.023127891       0.375602446834
185.523190399       0.358931135066
186.023252907       0.345187136914
186.523315414       0.334804501019
187.023377922       0.32823784301
187.52344043       0.325965620155
188.023502938       0.328493362157
188.523565446       0.336356667305
189.023627953       0.350123756771
189.523690461       0.370397367681
190.023752969       0.397815758569
190.523815477       0.433052599664
191.023877985       0.476815525881
191.523940493       0.529843143172
192.024003       0.592900299521
192.524065508       0.666771460863
193.024128016       0.75225206975
193.524190524       0.850137810713
194.024253032       0.961211760699
194.524315539       1.08622946504
195.024378047       1.2259020481
195.524440555       1.38087754179
196.024503063       1.5517206925
196.524565571       1.73889158572
197.024628079       1.94272350506
197.524690586       2.16340051544
198.024753094       2.40093532647
198.524815602       2.65514804743
199.02487811       2.92564648746
199.524940618       3.21180867996
200.025003125       3.51276831627
200.525065633       3.82740375864
201.025128141       4.15433126365
201.525190649       4.49190298507
202.025253157       4.83821023836
202.525315664       5.19109239986
203.025378172       5.54815168272
203.52544068       5.90677388334
204.025503188       6.26415502915
204.525565696       6.61733368638
205.025628204       6.96322851082
205.525690711       7.29868045067
206.025753219       7.62049884589
206.525815727       7.92551051819
207.025878235       8.21061081746
207.525940743       8.47281548796
208.02600325       8.70931214803
208.526065758       8.91751014179
209.026128266       9.09508752491
209.526190774       9.24003398915
210.026253282       9.3506886115
210.526315789       9.42577143247
211.026378297       9.46440801979
211.526440805       9.4661463548
212.026503313       9.43096558236
212.526565821       9.35927638467
213.026628329       9.25191296756
213.526690836       9.11011687584
214.026753344       8.93551307518
214.526815852       8.73007894352
215.02687836       8.49610699804
215.526940868       8.23616233886
216.027003375       7.95303591219
216.527065883       7.64969478097
217.027128391       7.32923063694
217.527190899       6.99480779574
218.027253407       6.64961188513
218.527315914       6.29680036991
219.027378422       5.93945595819
219.52744093       5.58054380782
220.027503438       5.22287330385
220.527565946       4.86906501481
221.027628454       4.5215232634
221.527690961       4.18241457197
222.027753469       3.8536520715
222.527815977       3.53688579999
223.027878485       3.23349866743
223.527940993       2.94460773302
224.0280035       2.67107033034
224.528066008       2.41349448852
225.028128516       2.17225303413
225.528191024       1.94750071875
226.028253532       1.73919370075
226.52831604       1.54711071469
227.028378547       1.37087528582
227.528441055       1.20997838775
228.028503563       1.06380099521
228.528566071       0.931636047888
229.028628579       0.812709412254
229.528691086       0.706199502988
230.028753594       0.611255301234
230.528816102       0.527012580726
231.02887861       0.452608222791
231.528941118       0.387192565491
232.029003625       0.329939789373
232.529066133       0.280056391602
233.029128641       0.236787841062
233.529191149       0.199423539345
234.029253657       0.167300236447
234.529316165       0.13980406609
235.029378672       0.116371374417
235.52944118       0.0964885183493
236.029503688       0.0796908069375
236.529566196       0.0655607516877
237.029628704       0.0537257809695
237.529691211       0.0438555602115
238.029753719       0.0356590445018
238.529816227       0.0288813742162
239.029878735       0.0233007080604
239.529941243       0.0187250720021
240.03000375       0.0149892874139
240.530066258       0.0119520276969
241.030128766       0.00949303993011
241.530191274       0.00751055684258
242.030253782       0.00591891468458
242.53031629       0.00464638439167
243.030378797       0.00363321672284
243.530441305       0.00282989672235
244.030503813       0.00219559878009
244.530566321       0.00169683060379
245.030628829       0.00130625242313
245.530691336       0.00100165656707
246.030753844       0.000765092050044
246.530816352       0.000582118831482
247.03087886       0.000441176856071
247.530941368       0.000333055727918
248.031003875       0.000250451827923
248.531066383       0.000187600770396
249.031128891       0.000139974247871
249.531191399       0.000104031481019
250.031253907       7.70166340818e-05
250.531316415       5.67946468841e-05
251.031378922       4.17189522711e-05
251.53144143       3.05254806377e-05
252.031503938       2.22481946621e-05
252.531566446       1.61521458993e-05
253.031628954       1.16807024372e-05
253.531691461       8.41416782498e-06
254.031753969       6.03750211628e-06
254.531816477       4.31527328797e-06
255.031878985       3.0723191349e-06
255.531941493       2.17889372038e-06
256.032004001       1.53931604722e-06
