#  x                 y             frequency           intensity
0.0       0.00111748618606       29.72       1.10851
0.500062507813       0.00140696141576       41.36       0.65606
1.00012501563       0.00176452960707       60.95       1.20023
1.50018752344       0.0022043613829       80.87       0.40542
2.00025003125       0.00274311552393       147.74       0.26917
2.50031253907       0.00340026898082       239.10       0.18151
3.00037504688       0.00419846728092       247.83       6.87325
3.50043755469       0.00516389128846       278.75       9.91646
4.00050006251       0.00632663483477       317.38       22.50627
4.50056257032       0.00772108614378       331.92       6.80186
5.00062507813       0.00938630426525       334.04       101.93703
5.50068758595       0.0113663799331       374.89       0.32540
6.00075009376       0.0137107684404       421.61       1.09206
6.50081260158       0.0164745803293       431.35       7.66976
7.00087510939       0.0197188140127       495.04       6.10141
7.5009376172       0.0235105129607       540.91       30.26249
8.00100012502       0.0279228288966       557.43       21.86016
8.50106263283       0.0330349716631       591.59       56.21802
9.00112514064       0.0389320261461       603.81       80.48278
9.50118764846       0.0457046169842       660.24       0.28343
10.0012501563       0.0534484028604       730.81       1.32757
10.5013126641       0.0622633840437       759.15       23.19012
11.0013751719       0.0722530096003       790.84       15.76610
11.5014376797       0.0835230743765       803.62       4.47847
12.0015001875       0.096180400465       818.22       14.49365
12.5015626953       0.110331303398       847.07       74.42822
13.0016252032       0.126079849682       862.08       104.15960
13.501687711       0.143525919377       870.16       26.03998
14.0017502188       0.162763095101       927.50       1.06093
14.5018127266       0.183876406835       954.00       14.20438
15.0018752344       0.206939970002       968.17       27.28325
15.5019377422       0.23201456219       1001.44       20.67551
16.00200025       0.259145191236       1036.13       0.32251
16.5020627578       0.288358713806       1099.14       64.85868
17.0021252657       0.319661568861       1120.23       21.73072
17.5021877735       0.35303769394       1146.89       32.68653
18.0022502813       0.388446693886       1173.62       62.79948
18.5023127891       0.425822331141       1191.42       170.64719
19.0023752969       0.465071403749       1199.08       3.42844
19.5024378047       0.506073071785       1232.58       0.95251
20.0025003125       0.548678684859       1254.10       23.78353
20.5025628204       0.592712152802       1287.78       105.37380
21.0026253282       0.637970888794       1327.03       12.48071
21.502687836       0.684227339352       1343.46       7.20157
22.0027503438       0.73123109913       1354.11       2.62046
22.5028128516       0.778711591016       1366.95       24.95223
23.0028753594       0.826381274041       1369.20       12.56599
23.5029378672       0.873939323909       1400.85       2.01451
24.003000375       0.921075714133       1474.91       18.83889
24.5030628829       0.967475610668       1491.45       5.37129
25.0031253907       1.01282398013       1552.06       98.32380
25.5031878985       1.05681030186       1635.75       10.85528
26.0032504063       1.09913326783       1659.40       47.36721
26.5033129141       1.13950535203       1660.31       29.32474
27.0033754219       1.17765713271       1810.93       263.95309
27.5034379297       1.21334125701       3045.88       19.65566
28.0035004376       1.24633594764       3076.07       3.28728
28.5035629454       1.27644796552       3094.07       17.10478
29.0036254532       1.30351495942       3150.27       16.71174
29.503687961       1.32740715435       3168.86       13.93199
30.0037504688       1.34802835207       3172.51       5.57591
30.5038129766       1.36531624079       3196.10       5.10365
31.0038754844       1.37924203415       3484.77       1.18487
31.5039379922       1.389809482       3563.58       3.83702
32.0040005001       1.39705331647       3727.27       64.45799
32.5040630079       1.40103721392       3799.85       64.09840
33.0041255157       1.40185136843
33.5041880235       1.39960978203
34.0042505313       1.39444738251
34.5043130391       1.3865170806
35.0043755469       1.37598687362
35.5044380548       1.36303709426
36.0045005626       1.34785788985
36.5045630704       1.33064700096
37.0046255782       1.31160788856
37.504688086       1.29094823768
38.0047505938       1.2688788433
38.5048131016       1.24561286185
39.0048756095       1.22136539094
39.5049381173       1.19635332093
40.0050006251       1.1707953861
40.5050631329       1.14491233097
41.0051256407       1.11892709947
41.5051881485       1.09306495103
42.0052506563       1.06755340944
42.5053131641       1.04262195613
43.005375672       1.01850139026
43.5054381798       0.995422792397
44.0055006876       0.973616046653
44.5055631954       0.953307896715
45.0056257032       0.934719533605
45.505688211       0.918063736405
46.0057507188       0.903541610504
46.5058132267       0.891338990309
47.0058757345       0.881622593913
47.5059382423       0.874536035104
48.0060007501       0.870195812629
48.5060632579       0.868687407172
49.0061257657       0.870061622615
49.5061882735       0.874331309563
50.0062507813       0.8814686056
50.5063132892       0.891402818415
51.006375797       0.904019064912
51.5064383048       0.91915776206
52.0065008126       0.936615044037
52.5065633204       0.956144155788
53.0066258282       0.977457846142
53.506688336       1.00023175504
54.0067508439       1.02410875997
54.5068133517       1.04870421742
55.0068758595       1.07361200695
55.5069383673       1.09841125942
56.0070008751       1.12267362722
56.5070633829       1.14597093539
57.0071258907       1.16788303662
57.5071883985       1.1880056834
58.0072509064       1.20595822551
58.5073134142       1.22139094173
59.007375922       1.23399182137
59.5074384298       1.24349262284
60.0075009376       1.24967405411
60.5075634454       1.25236994141
61.0076259532       1.25147027901
61.5076884611       1.24692308175
62.0077509689       1.23873499395
62.5078134767       1.22697064109
63.0078759845       1.211750744
63.5079384923       1.19324904785
64.0080010001       1.17168814888
64.5080635079       1.14733433004
65.0081260158       1.12049154115
65.5081885236       1.09149467967
66.0082510314       1.06070234338
66.5083135392       1.02848923718
67.008376047       0.995238420839
67.5084385548       0.961333584457
68.0085010626       0.927151533058
68.5085635704       0.893055051197
69.0086260783       0.859386304043
69.5086885861       0.826460912839
70.0087510939       0.794562821184
70.5088136017       0.76394004469
71.0088761095       0.734801371177
71.5089386173       0.707314052369
72.0090011251       0.681602501879
72.509063633       0.657747988844
73.0091261408       0.635789292472
73.5091886486       0.615724260739
74.0092511564       0.597512196808
74.5093136642       0.581076980024
75.009376172       0.566310814747
75.5094386798       0.553078489994
76.0095011876       0.541222026094
76.5095636955       0.530565581115
77.0096262033       0.520920489819
77.5096887111       0.512090310981
78.0097512189       0.503875764983
78.5098137267       0.496079452252
79.0098762345       0.488510254094
79.5099387423       0.480987330336
80.0100012502       0.473343642536
80.510063758       0.465428946937
81.0101262658       0.457112217356
81.5101887736       0.448283474404
82.0102512814       0.438855013387
82.5103137892       0.428762038569
83.010376297       0.417962725738
83.5104388049       0.406437748006
84.0105013127       0.394189311086
84.5105638205       0.381239753752
85.0106263283       0.36762977668
85.5106888361       0.353416368158
86.0107513439       0.338670498374
86.5108138517       0.323474655007
87.0108763595       0.307920291863
87.5109388674       0.292105259376
88.0110013752       0.276131281241
88.511063883       0.260101535343
89.0111263908       0.244118389934
89.5111888986       0.228281337845
90.0112514064       0.212685162841
90.5113139142       0.197418363182
91.0113764221       0.182561848493
91.5114389299       0.168187917368
92.0115014377       0.154359514954
92.5115639455       0.141129762372
93.0116264533       0.128541743351
93.5116889611       0.11662852798
94.0117514689       0.105413409153
94.5118139767       0.0949103241136
95.0118764846       0.0851244314168
95.5119389924       0.0760528126908
96.0120015002       0.0676852686097
96.512064008       0.0600051794272
97.0121265158       0.0529904021274
97.5121890236       0.046614178583
98.0122515314       0.0408460319175
98.5123140393       0.0356526314118
99.0123765471       0.0309986096198
99.5124390549       0.0268473187455
100.012501563       0.0231615166524
100.512564071       0.0199039760437
101.012626578       0.0170380132652
101.512689086       0.0145279358048
102.012751594       0.0123394098286
102.512814102       0.0104397509946
103.01287661       0.00879814330906
103.512939117       0.00738579194056
104.013001625       0.00617601671037
104.513064133       0.00514429345757
105.013126641       0.00426825067078
105.513189149       0.00352762872783
106.013251656       0.00290420882993
106.513314164       0.00238171830321
107.013376672       0.00194571840732
107.51343918       0.0015834801777
108.013501688       0.00128385316952
108.513564196       0.00103713129736
109.013626703       0.000834919300815
109.513689211       0.000670002732479
110.013751719       0.000536223777773
110.513814227       0.000428364685379
111.013876735       0.000342040121033
111.513939242       0.000273599358561
112.01400175       0.000220038890858
112.514064258       0.0001789257778
113.014126766       0.00014833184331
113.514189274       0.000126778684384
114.014251781       0.00011319335351
114.514314289       0.000106874515165
115.014376797       0.0001074688484
115.514439305       0.000114957462658
116.014501813       0.000129652104301
116.514564321       0.000152200948331
117.014626828       0.000183603785341
117.514689336       0.000225236419718
118.014751844       0.000278884083994
118.514814352       0.000346783638892
119.01487686       0.000431674262467
119.514939367       0.000536856229076
120.015001875       0.000666257234948
120.515064383       0.000824505538174
121.015126891       0.00101700894493
121.515189399       0.0012500383902
122.015251906       0.00153081453213
122.515314414       0.00186759540784
123.015376922       0.00226976279307
123.51543943       0.00274790447685
124.015501938       0.0033138892194
124.515564446       0.00398093072245
125.015626953       0.00476363652586
125.515689461       0.00567803737438
126.015751969       0.00674159229989
126.515814477       0.00797316446255
127.015876985       0.00939296271912
127.515939492       0.0110224439636
128.016002       0.0128841715436
128.516064508       0.015001625517
129.016127016       0.0173989611984
129.516189524       0.0201007133689
130.016252032       0.023131444683
130.516314539       0.0265153382171
131.016377047       0.0302757357267
131.516439555       0.0344346250136
132.016502063       0.0390120817907
132.516564571       0.0440256735352
133.016627078       0.0494898349661
133.516689586       0.0554152269098
134.016752094       0.0618080923277
134.516814602       0.0686696251008
135.01687711       0.0759953686949
135.516939617       0.0837746629757
136.017002125       0.0919901581265
136.517064633       0.100617414752
137.017127141       0.109624608777
137.517189649       0.118972358619
138.017252157       0.128613690296
138.517314664       0.138494153642
139.017377172       0.148552099667
139.51743968       0.158719125361
140.017502188       0.168920687987
140.517564696       0.179076886322
141.017627203       0.189103401365
141.517689711       0.198912584106
142.017752219       0.208414673018
142.517814727       0.217519119324
143.017877235       0.226135993874
143.517939742       0.234177445916
144.01800225       0.241559181217
144.518064758       0.248201925137
145.018127266       0.25403283534
145.518189774       0.258986829079
146.018252282       0.263007791301
146.518314789       0.266049632238
147.018377297       0.268077166636
147.518439805       0.269066791162
148.018502313       0.269006941771
148.518564821       0.267898318627
149.018627328       0.265753872469
149.518689836       0.26259855279
150.018752344       0.258468824683
150.518814852       0.253411967418
151.01887736       0.247485173639
151.518939867       0.240754473146
152.019002375       0.233293509591
152.519064883       0.225182201728
153.019127391       0.216505323175
153.519189899       0.207351035862
154.019252407       0.197809412399
154.519314914       0.187970981623
155.019377422       0.177925329565
155.51943993       0.16775978522
156.019502438       0.157558216797
156.519564946       0.147399959913
157.019627453       0.137358894508
157.519689961       0.127502682335
158.019752469       0.117892171923
158.519814977       0.108580973027
159.019877485       0.0996151980148
159.519939992       0.0910333634238
160.0200025       0.0828664412777
160.520065008       0.0751380466682
161.020127516       0.067864745698
161.520190024       0.0610564661433
162.020252532       0.0547169921426
162.520315039       0.0488445238107
163.020377547       0.0434322828798
163.520440055       0.0384691462029
164.020502563       0.0339402901562
164.520565071       0.0298278305363
165.020627578       0.0261114444003
165.520690086       0.0227689623234
166.020752594       0.0197769216794
166.520815102       0.0171110736981
167.02087761       0.0147468391413
167.520940118       0.0126597094128
168.021002625       0.0108255917281
168.521065133       0.00922109856763
169.021127641       0.00782378301977
169.521190149       0.006612322751
170.021252657       0.00556665623567
170.521315164       0.00466807553346
171.021377672       0.0038992803371
171.52144018       0.0032443982446
172.021502688       0.00268897626464
172.521565196       0.0022199484656
173.021627703       0.00182558445793
173.521690211       0.00149542308186
174.021752719       0.00122019528545
174.521815227       0.000991739745449
175.021877735       0.000802914327138
175.521940243       0.000647506018367
176.02200275       0.000520141522188
176.522065258       0.000416200264785
177.022127766       0.000331731179615
177.522190274       0.000263374271231
178.022252782       0.000208287646972
178.522315289       0.000164080433087
179.022377797       0.000128751763621
179.522440305       0.000100635843898
180.022502813       7.83529427731e-05
180.522565321       6.07660554472e-05
181.022627828       4.69428976046e-05
181.522690336       3.61228375047e-05
182.022752844       2.7688341396e-05
182.522815352       2.1140494967e-05
183.02287786       1.60781657725e-05
183.522940368       1.21803851835e-05
184.023002875       9.19155035715e-06
184.523065383       6.9090743808e-06
185.023127891       5.17314391251e-06
185.523190399       3.85827652146e-06
186.023252907       2.8664031077e-06
186.523315414       2.12123317035e-06
187.023377922       1.56369151051e-06
187.52344043       1.14824366291e-06
188.023502938       8.3995362194e-07
188.523565446       6.12141101353e-07
189.023627953       4.44526612917e-07
189.523690461       3.21771134539e-07
190.023752969       2.3233320202e-07
190.523815477       1.67580085803e-07
191.023877985       1.21101520377e-07
191.523940493       8.81844692198e-08
192.024003       6.54158670478e-08
192.524065508       5.03874154597e-08
193.024128016       4.14825424472e-08
193.524190524       3.77307862305e-08
194.024253032       3.87193354959e-08
194.524315539       4.45554497296e-08
195.024378047       5.58771883665e-08
195.524440555       7.39134884316e-08
196.024503063       1.00598343889e-07
196.524565571       1.38747862654e-07
197.024628079       1.92313532464e-07
197.524690586       2.66730362006e-07
198.024753094       3.6938495891e-07
198.524815602       5.10236383032e-07
199.02487811       7.02632145602e-07
199.524940618       9.64373448773e-07
200.025003125       1.31909818788e-06
200.525065633       1.79806797085e-06
201.025128141       2.44246714945e-06
201.525190649       3.30634842851e-06
202.025253157       4.46039197982e-06
202.525315664       5.99668424968e-06
203.025378172       8.03477009603e-06
203.52544068       1.07292889957e-05
204.025503188       1.42795745048e-05
204.525565696       1.89416778358e-05
205.025628204       2.50433734751e-05
205.525690711       3.30028195653e-05
206.025753219       4.33516809512e-05
206.525815727       5.67636811442e-05
207.025878235       7.40897340393e-05
207.525940743       9.64010201684e-05
208.02600325       0.0001250416188
208.526065758       0.000161692589452
209.026128266       0.000208449717249
209.526190774       0.000267917498543
210.026253282       0.000343322347943
210.526315789       0.000438648456118
211.026378297       0.000558800218457
211.526440805       0.000709795684922
212.026503313       0.000898996045689
212.526565821       0.00113537675629
213.026628329       0.00142984650681
213.526690836       0.00179562083437
214.026753344       0.00224865774162
214.526815852       0.00280816318735
215.02687836       0.00349717471747
215.526940868       0.00434323176198
216.027003375       0.0053791411782
216.527065883       0.00664384641027
217.027128391       0.00818340808594
217.527190899       0.010052102905
218.027253407       0.0123136462021
218.527315914       0.0150425415012
219.027378422       0.0183255576286
219.52744093       0.0222633304337
220.027503438       0.026972081796
220.527565946       0.0325854433273
221.027628454       0.0392563659535
221.527690961       0.0471590893928
222.027753469       0.0564911374532
222.527815977       0.0674752961475
223.027878485       0.0803615219962
223.527940993       0.0954287177706
224.0280035       0.112986302587
224.528066008       0.133375493045
225.028128516       0.156970202453
225.528191024       0.184177456538
226.028253532       0.215437217052
226.52831604       0.251221499854
227.028378547       0.292032672122
227.528441055       0.338400814871
228.028503563       0.3908800427
228.528566071       0.450043683041
229.028628579       0.516478232878
229.528691086       0.590776032011
230.028753594       0.673526618943
230.528816102       0.765306768083
231.02887861       0.866669245077
231.528941118       0.978130360103
232.029003625       1.10015644601
232.529066133       1.23314943819
233.029128641       1.37743178451
233.529191149       1.53323096486
234.029253657       1.70066394887
234.529316165       1.87972196506
235.029378672       2.07025599283
235.52944118       2.27196341801
236.029503688       2.48437631117
236.529566196       2.70685179324
237.029628704       2.93856494391
237.529691211       3.17850468351
238.029753719       3.42547301732
238.529816227       3.67808797338
239.029878735       3.93479049061
239.529941243       4.19385542511
240.03000375       4.45340674035
240.530066258       4.71143683548
241.030128766       4.96582984673
241.530191274       5.21438863505
242.030253782       5.45486505287
242.53031629       5.68499296735
243.030378797       5.90252341323
243.530441305       6.10526115799
244.030503813       6.29110189037
244.530566321       6.45806919419
245.030628829       6.60435044417
245.530691336       6.72833076303
246.030753844       6.82862420839
246.530816352       6.90410141493
247.03087886       6.95391300037
247.530941368       6.97750815011
248.031003875       6.9746479223
248.531066383       6.94541295743
249.031128891       6.89020543024
249.531191399       6.80974524014
250.031253907       6.7050605949
250.531316415       6.57747329412
251.031378922       6.42857915884
251.53144143       6.26022417692
252.031503938       6.07447703486
252.531566446       5.87359878313
253.031628954       5.66001043095
253.531691461       5.43625928589
