#  x                 y             frequency           intensity
0.0       1.84157101134e-06       43.26       4.07088
0.500062507813       2.57851663019e-06       49.01       3.04384
1.00012501563       3.59637621342e-06       62.81       0.90588
1.50018752344       4.99659885491e-06       88.23       0.82928
2.00025003125       6.91510111185e-06       171.72       8.02047
2.50031253907       9.53317982396e-06       188.34       0.10021
3.00037504688       1.3091601427e-05       297.80       13.17914
3.50043755469       1.79087001904e-05       310.89       22.12498
4.00050006251       2.44035071581e-05       339.47       23.43900
4.50056257032       3.312515549e-05       340.77       83.91130
5.00062507813       4.47900702853e-05       353.79       6.80143
5.50068758595       6.0328755459e-05       412.97       3.57332
6.00075009376       8.09443399446e-05       423.99       1.30332
6.50081260158       0.000108185442642       431.54       6.68547
7.00087510939       0.000144036361066       494.35       9.57852
7.5009376172       0.000191028081773       529.83       13.91813
8.00100012502       0.000252374148156       570.29       12.38191
8.50106263283       0.000332135997037       659.17       0.14033
9.00112514064       0.000435422979799       660.36       4.24810
9.50118764846       0.000568632902523       708.47       8.73440
10.0012501563       0.000739739533415       740.48       0.62321
10.5013126641       0.000958634109747       797.42       14.21223
11.0013751719       0.00123752839913       821.21       15.24485
11.5014376797       0.00159142729298       840.17       41.74714
12.0015001875       0.00203867918808       845.41       36.05809
12.5015626953       0.00260161249276       858.41       32.22151
13.0016252032       0.00330726641831       875.63       56.00652
13.501687711       0.00418822371907       891.32       14.78563
14.0017502188       0.00528355215646       942.92       0.92094
14.5018127266       0.00663986011194       945.89       46.22585
15.0018752344       0.00831246988972       960.24       3.20615
15.5019377422       0.0103667097641       983.29       41.33016
16.00200025       0.0128793226788       1035.10       0.23897
16.5020627578       0.0159399856487       1098.63       29.27169
17.0021252657       0.0196529293171       1124.51       22.51581
17.5021877735       0.0241386417763       1162.70       17.85845
18.0022502813       0.0295356346931       1191.95       161.61967
18.5023127891       0.0360022430386       1199.77       6.05295
19.0023752969       0.0437184224131       1213.87       27.97492
19.5024378047       0.052887500215       1234.33       0.45446
20.0025003125       0.0637378289179       1286.89       88.17233
20.5025628204       0.0765242817301       1290.00       37.56023
21.0026253282       0.0915295232093       1297.62       6.99106
21.502687836       0.109064980315       1347.70       4.03824
22.0027503438       0.12947143329       1362.47       6.38036
22.5028128516       0.153119141075       1367.22       23.83166
23.0028753594       0.180407413083       1376.51       19.29262
23.5029378672       0.211763538575       1409.85       436.04592
24.003000375       0.247640986955       1474.30       19.29780
24.5030628829       0.288516797447       1490.29       8.92662
25.0031253907       0.334888085188       1551.22       100.13062
25.5031878985       0.387267602969       1633.73       11.17774
26.0032504063       0.4461783139       1658.73       37.81085
26.5033129141       0.512146950108       1662.54       34.76319
27.0033754219       0.585696556188       1837.62       348.53374
27.5034379297       0.667338043118       3032.50       7.19577
28.0035004376       0.757560808388       3047.43       21.47952
28.5035629454       0.856822510458       3096.79       5.87282
29.0036254532       0.965538119638       3152.31       16.00998
29.503687961       1.08406840204       3161.70       8.36538
30.0037504688       1.21270802736       3171.46       7.45499
30.5038129766       1.35167352363       3197.19       3.67903
31.0038754844       1.50109133154       3452.75       233.59075
31.5039379922       1.66098623608       3493.52       5.82576
32.0040005001       1.83127047273       3563.92       24.07721
32.5040630079       2.01173381839       3798.86       70.31941
33.0041255157       2.2020349819
33.5041880235       2.40169460533
34.0042505313       2.61009017382
34.5043130391       2.82645310869
35.0043755469       3.04986828555
35.5044380548       3.2792761768
36.0045005626       3.51347776646
36.5045630704       3.75114232613
37.0046255782       3.99081807525
37.504688086       4.2309456784
38.0047505938       4.46987445902
38.5048131016       4.70588113499
39.0048756095       4.93719080905
39.5049381173       5.16199987824
40.0050006251       5.37850046459
40.5050631329       5.58490591452
41.0051256407       5.77947687125
41.5051881485       5.96054739226
42.0052506563       6.12655056531
42.5053131641       6.27604307261
43.005375672       6.40772816262
43.5054381798       6.52047651469
44.0055006876       6.61334452091
44.5055631954       6.68558956259
45.0056257032       6.73668192384
45.505688211       6.76631305983
46.0057507188       6.77440002111
46.5058132267       6.76108592444
47.0058757345       6.72673645395
47.5059382423       6.67193246942
48.0060007501       6.59745889058
48.5060632579       6.50429011328
49.0061257657       6.39357229356
49.5061882735       6.26660290681
50.0062507813       6.12480804892
50.5063132892       5.96971799361
51.006375797       5.80294155346
51.5064383048       5.62613981069
52.0065008126       5.44099978728
52.5065633204       5.2492086129
53.0066258282       5.05242872339
53.506688336       4.85227458353
54.0067508439       4.65029137687
54.5068133517       4.44793604428
55.0068758595       4.24656098296
55.5069383673       4.04740064212
56.0070008751       3.85156117176
56.5070633829       3.66001320001
57.0071258907       3.47358773423
57.5071883985       3.29297510416
58.0072509064       3.11872679372
58.5073134142       2.95125994356
59.007375922       2.79086425117
59.5074384298       2.63771094928
60.0075009376       2.49186350945
60.5075634454       2.35328969446
61.0076259532       2.22187457191
61.5076884611       2.09743410187
62.0077509689       1.97972892235
62.5078134767       1.86847797729
63.0078759845       1.76337166165
63.5079384923       1.66408419472
64.0080010001       1.57028497559
64.5080635079       1.48164872086
65.0081260158       1.39786423349
65.5081885236       1.31864170048
66.0082510314       1.2437184653
66.5083135392       1.17286326622
67.008376047       1.10587897333
67.5084385548       1.04260389391
68.0085010626       0.982911747084
68.5085635704       0.926710434144
69.0086260783       0.873939749846
69.5086885861       0.824568193263
70.0087510939       0.778589043752
70.5088136017       0.736015869504
71.0088761095       0.696877633168
71.5089386173       0.661213552135
72.0090011251       0.629067860976
72.509063633       0.600484611045
73.0091261408       0.575502628285
73.5091886486       0.554150735397
74.0092511564       0.536443329602
74.5093136642       0.522376392513
75.009376172       0.511923994826
75.5094386798       0.505035345599
76.0095011876       0.501632424207
76.5095636955       0.501608222468
77.0096262033       0.504825614865
77.5096887111       0.51111686616
78.0097512189       0.520283777629
78.5098137267       0.532098465493
79.0098762345       0.546304757584
79.5099387423       0.562620186673
80.0100012502       0.580738550997
80.510063758       0.600333004329
81.0101262658       0.621059629362
81.5101887736       0.642561439389
82.0102512814       0.664472744397
82.5103137892       0.686423808994
83.010376297       0.708045721463
83.5104388049       0.728975385968
84.0105013127       0.748860543985
84.5105638205       0.767364726799
85.0106263283       0.784172038677
85.5106888361       0.798991670556
86.0107513439       0.811562046849
86.5108138517       0.821654513512
87.0108763595       0.829076483806
87.5109388674       0.83367396913
88.0110013752       0.835333435689
88.511063883       0.833982943231
89.0111263908       0.829592539205
89.5111888986       0.822173899943
90.0112514064       0.811779229217
90.5113139142       0.7984994432
91.0113764221       0.782461688732
91.5114389299       0.763826258359
92.0115014377       0.742782980222
92.5115639455       0.719547173003
93.0116264533       0.694355265544
93.5116889611       0.667460186938
94.0117514689       0.639126635875
94.5118139767       0.609626337701
95.0118764846       0.579233394071
95.5119389924       0.548219823582
96.0120015002       0.516851382559
96.512064008       0.485383743736
97.0121265158       0.454059097357
97.5121890236       0.423103224798
98.0122515314       0.392723079658
98.5123140393       0.363104896017
99.0123765471       0.334412828633
99.5124390549       0.306788115839
100.012501563       0.280348743087
100.512564071       0.255189573923
101.012626578       0.231382905842
101.512689086       0.208979401145
102.012751594       0.188009337693
102.512814102       0.168484121335
103.01287661       0.1503980006
103.512939117       0.133729924991
104.013001625       0.118445490538
104.513064133       0.104498920044
105.013126641       0.0918350303362
105.513189149       0.0803911445572
106.013251656       0.0700989138617
106.513314164       0.0608860194508
107.013376672       0.0526777325332
107.51343918       0.0453983162636
108.013501688       0.0389722597992
108.513564196       0.033325340203
109.013626703       0.0283855128684
109.513689211       0.0240836353872
110.013751719       0.0203540332881
110.513814227       0.0171349188255
111.013876735       0.014368676019
111.513939242       0.0120020264878
112.01400175       0.00998609133547
112.514064258       0.00827636450654
113.014126766       0.00683261273718
113.514189274       0.00561871653886
114.014251781       0.00460246567612
114.514314289       0.00375532140692
115.014376797       0.0030521564215
115.514439305       0.00247098201042
116.014501813       0.00199267057237
116.514564321       0.00160068018419
117.014626828       0.00128078663867
117.514689336       0.00102082713686
118.014751844       0.000810458721575
118.514814352       0.000640933568168
119.01487686       0.000504892413024
119.514939367       0.000396176698184
120.015001875       0.000309659437188
120.515064383       0.000241094353785
121.015126891       0.000186982500739
121.515189399       0.000144455318217
122.015251906       0.000111172927299
122.515314414       8.52363610119e-05
123.015376922       6.51124006715e-05
123.51543943       4.95696977772e-05
124.015501938       3.76249109738e-05
124.515564446       2.84976648802e-05
125.015626953       2.15732354155e-05
125.515689461       1.63719787632e-05
126.015751969       1.25246438207e-05
126.515814477       9.75283785983e-06
127.015876985       7.85405045691e-06
127.515939492       6.69078109153e-06
128.016002       6.18346187431e-06
128.516064508       6.30702044214e-06
129.016127016       7.09109196252e-06
129.516189524       8.62406715137e-06
130.016252032       1.10613598256e-05
130.516314539       1.46384981545e-05
131.016377047       1.96898944941e-05
131.516439555       2.66744361037e-05
132.016502063       3.62093701642e-05
132.516564571       4.91143385529e-05
133.016627078       6.64678578838e-05
133.516689586       8.96790450405e-05
134.016752094       0.00012057796352
134.516814602       0.000161528615546
135.01687711       0.000215569331044
135.516939617       0.000286586106036
136.017002125       0.000379525314553
136.517064633       0.000500653149367
137.017127141       0.000657870120776
137.517189649       0.000861089934857
138.017252157       0.00112269304931
138.517314664       0.0014580661225
139.017377172       0.00188623937416
139.51743968       0.00243063449702
140.017502188       0.00311993611718
140.517564696       0.00398909980409
141.017627203       0.00508050917404
141.517689711       0.00644529359871
142.017752219       0.00814481629928
142.517814727       0.0102523400506
143.017877235       0.0128548742121
143.517939742       0.016055202224
144.01800225       0.0199740829576
144.518064758       0.0247526123044
145.018127266       0.0305547230852
145.518189774       0.0375697917653
146.018252282       0.0460153096167
146.518314789       0.0561395640127
147.018377297       0.0682242626644
147.518439805       0.0825870201058
148.018502313       0.0995836119896
148.518564821       0.119609889234
149.018627328       0.143103231355
149.518689836       0.170543407058
150.018752344       0.202452701131
150.518814852       0.239395160621
151.01887736       0.281974811023
151.518939867       0.330832695667
152.019002375       0.386642599278
152.519064883       0.450105330696
153.019127391       0.521941460385
153.519189899       0.602882436148
154.019252407       0.693660035467
154.519314914       0.794994155018
155.019377422       0.907578986752
155.51943993       1.03206768467
156.019502438       1.16905568585
156.519564946       1.3190629121
157.019627453       1.48251514242
157.519689961       1.65972490984
158.019752469       1.85087233595
158.519814977       2.05598637012
159.019877485       2.27492694562
159.519939992       2.50736859844
160.0200025       2.75278611394
160.520065008       3.01044276983
161.020127516       3.27938172852
161.520190024       3.55842109757
162.020252532       3.8461531214
162.520315039       4.14094789256
163.020377547       4.44096187601
163.520440055       4.74415142787
164.020502563       5.04829136293
164.520565071       5.35099848656
165.020627578       5.64975986104
165.520690086       5.94196542769
166.020752594       6.22494446025
166.520815102       6.49600518762
167.02087761       6.75247679931
167.520940118       6.99175294165
168.021002625       7.21133573037
168.521065133       7.40887925042
169.021127641       7.58223148922
169.521190149       7.72947365807
170.021252657       7.84895589735
170.521315164       7.93932843556
171.021377672       7.99956737755
171.52144018       8.02899443034
172.021502688       8.02729003192
172.521565196       7.99449952414
173.021627703       7.93103219874
173.521690211       7.83765324012
174.021752719       7.71546878169
174.521815227       7.56590447886
175.021877735       7.39067817412
175.521940243       7.19176738159
176.02200275       6.97137244664
176.522065258       6.7318763345
177.022127766       6.47580206946
177.522190274       6.20576887987
178.022252782       5.92444810546
178.522315289       5.63451989104
179.022377797       5.33863162979
179.522440305       5.03935903003
180.022502813       4.73917056854
180.522565321       4.44039596475
181.022627828       4.145199168
181.522690336       3.85555620259
182.022752844       3.57323806431
182.522815352       3.29979871664
183.02287786       3.03656809594
183.522940368       2.78464990994
184.023002875       2.54492390327
184.523065383       2.31805217261
185.023127891       2.10448904182
185.523190399       1.90449395655
186.023252907       1.71814682715
186.523315414       1.54536523797
187.023377922       1.38592294869
187.52344043       1.23946913727
188.023502938       1.10554787172
188.523565446       0.983617347119
189.023627953       0.873068481484
189.523690461       0.773242527412
190.023752969       0.683447422056
190.523815477       0.602972664594
191.023877985       0.531102574698
191.523940493       0.467127846385
192.024003       0.410355367144
192.524065508       0.360116321416
193.024128016       0.31577263947
193.524190524       0.276721887223
194.024253032       0.242400719271
194.524315539       0.212287036818
195.024378047       0.185901004507
195.524440555       0.162805086137
196.024503063       0.142603259626
196.524565571       0.124939567155
197.024628079       0.109496148159
197.524690586       0.0959908915242
198.024753094       0.0841748299351
198.524815602       0.0738293845285
199.02487811       0.0647635525644
199.524940618       0.0568111153699
200.025003125       0.0498279288096
200.525065633       0.0436893444255
201.025128141       0.0382877964571
201.525190649       0.0335305784129
202.025253157       0.0293378228324
202.525315664       0.0256406894076
203.025378172       0.0223797596914
203.52544068       0.0195036311558
204.025503188       0.0169676992486
204.525565696       0.0147331132131
205.025628204       0.0127658896176
205.525690711       0.0110361666341
206.025753219       0.00951758194541
206.525815727       0.00818675759873
207.025878235       0.00702287600176
207.525940743       0.00600733246561
208.02600325       0.00512345110367
208.526065758       0.00435625241241
209.026128266       0.0036922624047
209.526190774       0.00311935467554
210.026253282       0.00262661820846
210.526315789       0.00220424504322
211.026378297       0.00184343310152
211.526440805       0.00153630049619
212.026503313       0.00127580852774
212.526565821       0.00105569130512
213.026628329       0.000870390523289
213.526690836       0.000714994401332
214.026753344       0.000585180145822
214.526815852       0.000477159569961
215.02687836       0.000387627685376
215.526940868       0.000313714204864
216.027003375       0.000252937964776
216.527065883       0.00020316430716
217.027128391       0.000162565465172
217.527190899       0.000129583979424
218.027253407       0.000102899145451
218.527315914       8.13964590477e-05
219.027378422       6.41399914221e-05
219.52744093       5.0347593088e-05
220.027503438       3.93687963305e-05
220.527565946       3.06652622936e-05
221.027628454       2.37936007844e-05
221.527690961       1.83903789034e-05
222.027753469       1.41591282594e-05
222.527815977       1.08591592614e-05
223.027878485       8.29599408276e-06
223.527940993       6.31323656161e-06
224.0280035       4.78570675519e-06
224.528066008       3.61367932365e-06
225.028128516       2.7180776977e-06
225.528191024       2.03648947301e-06
226.028253532       1.51988216173e-06
226.52831604       1.12991190684e-06
227.028378547       8.36730708938e-07
227.528441055       6.17209895951e-07
228.028503563       4.53508827335e-07
228.528566071       3.3192807493e-07
229.028628579       2.4199552357e-07
229.528691086       1.7574198989e-07
230.028753594       1.27130102708e-07
230.528816102       9.16063809338e-08
231.02887861       6.57517584587e-08
231.528941118       4.70103214801e-08
232.029003625       3.34798277465e-08
232.529066133       2.37507540734e-08
233.029128641       1.67832500454e-08
233.529191149       1.18135385848e-08
234.029253657       8.28306814851e-09
234.529316165       5.78514974034e-09
235.029378672       4.02496041618e-09
235.52944118       2.78971210377e-09
236.029503688       1.92651216491e-09
236.529566196       1.32601577798e-09
237.029628704       9.10419874831e-10
237.529691211       6.24699049608e-10
238.029753719       4.30256316378e-10
238.529816227       3.00372963838e-10
239.029878735       2.17006198725e-10
239.529941243       1.68612571905e-10
240.03000375       1.48779341466e-10
240.530066258       1.55533731662e-10
241.030128766       1.91279656864e-10
241.530191274       2.63391065417e-10
242.030253782       3.85579511162e-10
242.53031629       5.80261343403e-10
243.030378797       8.82290100501e-10
243.530441305       1.34460932693e-09
244.030503813       2.04664279995e-09
244.530566321       3.10660363635e-09
245.030628829       4.69941234704e-09
245.530691336       7.08262262122e-09
246.030753844       1.06337379964e-08
246.530816352       1.59036640682e-08
247.03087886       2.36929150721e-08
247.530941368       3.51597605948e-08
248.031003875       5.19729956019e-08
248.531066383       7.65267567959e-08
249.031128891       1.12241197075e-07
249.531191399       1.63981393789e-07
250.031253907       2.38638282096e-07
250.531316415       3.45930535498e-07
251.031378922       4.99506255369e-07
251.53144143       7.18449455354e-07
252.031503938       1.02933034988e-06
252.531566446       1.46898250022e-06
253.031628954       2.08824653753e-06
