#  x                 y             frequency           intensity
0.0       0.000259072968558       32.83       1.17378
0.500062507813       0.000334232290748       44.27       2.02359
1.00012501563       0.000429521052152       67.29       0.13264
1.50018752344       0.00054983308228       83.20       0.67676
2.00025003125       0.00070111347884       164.43       0.89218
2.50031253907       0.000890548426954       212.24       4.87929
3.00037504688       0.00112678055968       271.22       65.88584
3.50043755469       0.00142015128248       289.05       3.64433
4.00050006251       0.00178297107002       323.82       2.94308
4.50056257032       0.00222981818916       338.12       97.22006
5.00062507813       0.00277786559368       375.31       9.41175
5.50068758595       0.00344723486183       422.11       5.17474
6.00075009376       0.00426137500265       425.02       1.70697
6.50081260158       0.00524746273866       435.54       5.25352
7.00087510939       0.00643681948936       491.61       11.74382
7.5009376172       0.00786533874723       524.70       7.07447
8.00100012502       0.00957391588208       555.05       12.04365
8.50106263283       0.011608870668       578.02       70.47946
9.00112514064       0.0140223510502       655.81       84.30164
9.50118764846       0.0168727049166       659.55       0.22699
10.0012501563       0.020224804992       724.95       4.56088
10.5013126641       0.0241503105036       745.33       42.71908
11.0013751719       0.0287278480871       760.81       16.24629
11.5014376797       0.0340430935966       814.44       22.16208
12.0015001875       0.0401887361653       837.34       6.58508
12.5015626953       0.0472643061296       851.91       17.62125
13.0016252032       0.0553758493778       872.44       22.76193
13.501687711       0.0646354323919       876.75       102.64263
14.0017502188       0.0751604647768       924.05       7.68560
14.5018127266       0.0870728294565       940.58       2.75464
15.0018752344       0.100497814949       977.33       1.42453
15.5019377422       0.115562849185       995.97       31.98012
16.00200025       0.132396040127       1036.81       0.33833
16.5020627578       0.15112453482       1118.45       53.96293
17.0021252657       0.171872715354       1134.25       31.82284
17.5021877735       0.194760257212       1160.66       94.97252
18.0022502813       0.219900082469       1180.91       64.43062
18.5023127891       0.247396246927       1189.18       174.93114
19.0023752969       0.277341806169       1201.07       6.09710
19.5024378047       0.309816710477       1230.18       4.57928
20.0025003125       0.344885782104       1241.53       4.48644
20.5025628204       0.382596830301       1287.95       102.49084
21.0026253282       0.422978959529       1311.17       4.33238
21.502687836       0.466041124109       1347.46       17.58145
22.0027503438       0.511770978179       1359.80       6.92088
22.5028128516       0.560134063151       1368.30       34.25564
23.0028753594       0.611073365901       1370.47       6.15167
23.5029378672       0.664509270008       1393.00       5.69862
24.003000375       0.720339909646       1475.85       17.91972
24.5030628829       0.778441921777       1484.64       8.74208
25.0031253907       0.838671577525       1551.65       95.92248
25.5031878985       0.900866258727       1633.69       13.78906
26.0032504063       0.964846231302       1657.75       39.73617
26.5033129141       1.030416654       1665.12       45.74655
27.0033754219       1.09736975       1796.09       237.83872
27.5034379297       1.16548706044       3037.99       13.57649
28.0035004376       1.23454169377       3064.45       25.30894
28.5035629454       1.30430048359       3109.05       6.65343
29.0036254532       1.3745259703       3151.43       17.23496
29.503687961       1.444978129       3174.27       3.57708
30.0037504688       1.51541577722       3177.60       6.72412
30.5038129766       1.58559761146       3195.74       4.17110
31.0038754844       1.65528283978       3494.87       2.08946
31.5039379922       1.72423139941       3568.05       7.54933
32.0040005001       1.79220377103       3719.20       60.78189
32.5040630079       1.85896042561       3799.18       63.75467
33.0041255157       1.92426096303
33.5041880235       1.98786302337
34.0042505313       2.04952107103
34.5043130391       2.10898516657
35.0043755469       2.16599985145
35.5044380548       2.22030327496
36.0045005626       2.2716266906
36.5045630704       2.31969444098
37.0046255782       2.36422453467
37.504688086       2.404929898
38.0047505938       2.44152035797
38.5048131016       2.47370538191
39.0048756095       2.50119756563
39.5049381173       2.52371682672
40.0050006251       2.540995224
40.5050631329       2.55278229108
41.0051256407       2.55885074105
41.5051881485       2.55900237458
42.0052506563       2.55307400364
42.5053131641       2.5409431914
43.005375672       2.52253360419
43.5054381798       2.49781977534
44.0055006876       2.46683109283
44.5055631954       2.4296548426
45.0056257032       2.38643816603
45.505688211       2.33738882345
46.0057507188       2.28277469253
46.5058132267       2.22292197139
47.0058757345       2.15821209805
47.5059382423       2.08907743956
48.0060007501       2.01599584371
48.5060632579       1.93948418262
49.0061257657       1.86009104837
49.5061882735       1.77838878636
50.0062507813       1.69496507006
50.5063132892       1.61041423212
51.006375797       1.52532856988
51.5064383048       1.44028983941
52.0065008126       1.35586114132
52.5065633204       1.27257938402
53.0066258282       1.1909484878
53.506688336       1.11143346594
54.0067508439       1.03445548929
54.5068133517       0.96038800903
55.0068758595       0.889553979757
55.5069383673       0.822224193537
56.0070008751       0.758616705163
56.5070633829       0.698897301324
57.0071258907       0.643180941923
57.5071883985       0.591534081134
58.0072509064       0.543977759245
58.5073134142       0.500491344053
59.007375922       0.461016792578
59.5074384298       0.425463299871
60.0075009376       0.393712201585
60.5075634454       0.365622000171
61.0076259532       0.341033390789
61.5076884611       0.319774171629
62.0077509689       0.301663933986
62.5078134767       0.286518439497
63.0078759845       0.274153605119
63.5079384923       0.264389030188
64.0080010001       0.257051014003
64.5080635079       0.251975026509
65.0081260158       0.249007608528
65.5081885236       0.248007691555
66.0082510314       0.248847340122
66.5083135392       0.251411932139
67.008376047       0.255599804268
67.5084385548       0.261321400302
68.0085010626       0.268497970498
68.5085635704       0.277059878871
69.0086260783       0.286944583391
69.5086885861       0.298094360828
70.0087510939       0.310453853376
70.5088136017       0.323967518144
71.0088761095       0.338577062922
71.5089386173       0.354218952112
72.0090011251       0.370822065393
72.509063633       0.388305588261
73.0091261408       0.406577208222
73.5091886486       0.425531682923
74.0092511564       0.44504983711
74.5093136642       0.464998034065
75.009376172       0.485228154307
75.5094386798       0.505578100187
76.0095011876       0.525872829857
76.5095636955       0.545925908449
77.0096262033       0.565541548505
77.5096887111       0.584517096399
78.0097512189       0.602645907083
78.5098137267       0.61972053651
79.0098762345       0.635536170044
79.5099387423       0.649894196439
80.0100012502       0.662605830934
80.510063758       0.673495687914
81.0101262658       0.682405203631
81.5101887736       0.689195812667
82.0102512814       0.693751788091
82.5103137892       0.695982664494
83.010376297       0.695825174849
83.5104388049       0.693244646221
84.0105013127       0.688235815037
84.5105638205       0.680823039601
85.0106263283       0.671059904996
85.5106888361       0.659028233026
86.0107513439       0.644836526616
86.5108138517       0.628617893741
87.0108763595       0.610527509783
87.5109388674       0.59073968892
88.0110013752       0.56944464428
88.511063883       0.546845022981
89.0111263908       0.523152305627
89.5111888986       0.498583160377
90.0112514064       0.473355839409
90.5113139142       0.447686700673
91.0113764221       0.421786930558
91.5114389299       0.395859533879
92.0115014377       0.370096646748
92.5115639455       0.344677216045
93.0116264533       0.319765076642
93.5116889611       0.295507444887
94.0117514689       0.272033834424
94.5118139767       0.249455388753
95.0118764846       0.227864614229
95.5119389924       0.207335487854
96.0120015002       0.187923906397
96.512064008       0.169668437218
97.0121265158       0.152591326712
97.5121890236       0.136699719641
98.0122515314       0.12198704152
98.5123140393       0.108434496724
99.0123765471       0.0960126368346
99.5124390549       0.0846829567129
100.012501563       0.0743994797438
100.512564071       0.0651102983197
101.012626578       0.0567590407348
101.512689086       0.0492862410093
102.012751594       0.0426305935462
102.512814102       0.0367300797672
103.01287661       0.0315229588178
103.512939117       0.0269486189546
104.013001625       0.0229482902406
104.513064133       0.0194656226088
105.013126641       0.0164471361904
105.513189149       0.0138425530238
106.013251656       0.0116050208906
106.513314164       0.00969124109826
107.013376672       0.00806151259548
107.51343918       0.00667970492933
108.013501688       0.00551317229695
108.513564196       0.00453262038168
109.013626703       0.00371193686154
109.513689211       0.0030279955036
110.013751719       0.00246044267175
110.513814227       0.00199147393228
111.013876735       0.00160560728781
111.513939242       0.00128945844399
112.01400175       0.00103152244591
112.514064258       0.000821965034664
113.014126766       0.000652426184825
113.514189274       0.000515837499702
114.014251781       0.000406254467065
114.514314289       0.000318704012485
115.014376797       0.000249047326174
115.514439305       0.000193857575103
116.014501813       0.000150311836083
116.514564321       0.00011609638751
117.014626828       8.9324366745e-05
117.514689336       6.84647262249e-05
118.014751844       5.22813941362e-05
118.514814352       3.97815554283e-05
119.01487686       3.0172007593e-05
119.514939367       2.28226055782e-05
120.015001875       1.72358850819e-05
120.515064383       1.30220380896e-05
121.015126891       9.87850470308e-06
121.515189399       7.5735379022e-06
122.015251906       5.93319062305e-06
122.515314414       4.83126594419e-06
123.015376922       4.18186046763e-06
123.51543943       3.93421794981e-06
124.015501938       4.0696951372e-06
124.515564446       4.60072521718e-06
125.015626953       5.57174720138e-06
125.515689461       7.06215298425e-06
126.015751969       9.1913889168e-06
126.515814477       1.2126436645e-05
127.015876985       1.60919897199e-05
127.515939492       2.13837389209e-05
128.016002       2.83852808568e-05
128.516064508       3.75892713022e-05
129.016127016       4.96235564046e-05
129.516189524       6.52831301872e-05
130.016252032       8.55688836501e-05
130.516314539       0.000111734226238
131.016377047       0.000145340770372
131.516439555       0.000188324368729
132.016502063       0.000243072875299
132.516564571       0.000312517056702
133.016627078       0.000400236100264
133.516689586       0.000510579138851
134.016752094       0.000648804127193
134.516814602       0.000821235247065
135.01687711       0.00103543977534
135.516939617       0.00130042500546
136.017002125       0.00162685535554
136.517064633       0.00202728921338
137.017127141       0.00251643434879
137.517189649       0.00311141986219
138.017252157       0.0038320816304
138.517314664       0.00470125706205
139.017377172       0.00574508369488
139.51743968       0.00699329477425
140.017502188       0.00847950347528
140.517564696       0.0102414659068
141.017627203       0.0123213115134
141.517689711       0.014765728032
142.017752219       0.0176260868269
142.517814727       0.0209584933102
143.017877235       0.0248237463253
143.517939742       0.0292871899332
144.01800225       0.03441844108
144.518064758       0.0402909772286
145.018127266       0.0469815692958
145.518189774       0.0545695472128
146.018252282       0.0631358881769
146.518314789       0.072762121217
147.018377297       0.0835290460489
147.518439805       0.0955152693224
148.018502313       0.108795567185
148.518564821       0.1234390895
149.018627328       0.139507427894
149.518689836       0.157052576911
150.018752344       0.176114824633
150.518814852       0.196720615985
151.01887736       0.218880438239
151.518939867       0.242586783707
152.019002375       0.267812248918
152.519064883       0.294507832442
153.019127391       0.322601494686
153.519189899       0.351997042173
154.019252407       0.382573395922
154.519314914       0.414184298347
155.019377422       0.44665850573
155.51943993       0.479800503654
156.019502438       0.513391771147
156.519564946       0.547192605827
157.019627453       0.580944507407
157.519689961       0.614373101028
158.019752469       0.647191565421
158.519814977       0.679104514495
159.019877485       0.709812265222
159.519939992       0.739015410135
160.0200025       0.766419600077
160.520065008       0.791740432557
161.020127516       0.81470833359
161.520190024       0.835073316742
162.020252532       0.852609502388
162.520315039       0.867119283261
163.020377547       0.878437028996
163.520440055       0.886432232654
164.020502563       0.891012015669
164.520565071       0.892122924046
165.020627578       0.889751967251
165.520690086       0.883926871637
166.020752594       0.874715541538
166.520815102       0.86222474277
167.02087761       0.846598044347
167.520940118       0.828013074038
168.021002625       0.806678161311
168.521065133       0.782828456614
169.021127641       0.756721628332
169.521190149       0.728633247788
170.021252657       0.698851978085
170.521315164       0.66767468434
171.021377672       0.635401581007
171.52144018       0.602331526668
172.021502688       0.568757568347
172.521565196       0.534962826302
173.021627703       0.501216797079
173.521690211       0.46777213784
174.021752719       0.434861979161
174.521815227       0.402697797417
175.021877735       0.371467861892
175.521940243       0.3413362566
176.02200275       0.312442462841
176.522065258       0.28490147622
177.022127766       0.258804421439
177.522190274       0.234219619966
178.022252782       0.21119405964
178.522315289       0.189755211581
179.022377797       0.169913138136
179.522440305       0.151662836081
180.022502813       0.134986761413
180.522565321       0.119857485778
181.022627828       0.106240439314
181.522690336       0.0940967002375
182.022752844       0.0833857974224
182.522815352       0.0740684981522
183.02287786       0.0661095588003
183.522940368       0.0594804211159
184.023002875       0.0541618407249
184.523065383       0.0501464371991
185.023127891       0.0474411563859
185.523190399       0.0460696355176
186.023252907       0.0460744598688
186.523315414       0.0475192964169
187.023377922       0.0504908851689
187.52344043       0.0551008627081
188.023502938       0.0614873853184
188.523565446       0.0698165110719
189.023627953       0.0802832918825
189.523690461       0.0931125181838
190.023752969       0.108559051067
190.523815477       0.126907669954
191.023877985       0.148472358746
191.523940493       0.173594950452
192.024003       0.202643050166
192.524065508       0.236007159361
193.024128016       0.274096931454
193.524190524       0.317336499632
194.024253032       0.366158833482
194.524315539       0.420999101011
195.024378047       0.482287037198
195.524440555       0.550438348979
196.024503063       0.625845219122
196.524565571       0.708866006959
197.024628079       0.799814281685
197.524690586       0.898947362517
198.024753094       1.0064545783
198.524815602       1.12244549547
199.02487811       1.24693839609
199.524940618       1.37984931535
200.025003125       1.52098196853
200.525065633       1.67001890975
201.025128141       1.82651426713
201.525190649       1.98988839035
202.025253157       2.15942472576
202.525315664       2.33426920162
203.025378172       2.51343236038
203.52544068       2.69579441834
204.025503188       2.88011336478
204.525565696       3.06503613633
205.025628204       3.24911281799
205.525690711       3.43081373381
206.025753219       3.60854920045
206.525815727       3.78069162754
207.025878235       3.94559956556
207.525940743       4.10164322561
208.02600325       4.24723093131
208.526065758       4.38083591208
209.026128266       4.50102281368
209.526190774       4.60647328588
210.026253282       4.69601001162
210.526315789       4.76861856642
211.026378297       4.82346654076
211.526440805       4.85991942192
212.026503313       4.87755281126
212.526565821       4.87616064839
213.026628329       4.85575921904
213.526690836       4.81658683788
214.026753344       4.75909921476
214.526815852       4.68396063037
215.02687836       4.59203116032
215.526940868       4.48435029096
216.027003375       4.36211736355
216.527065883       4.22666936065
217.027128391       4.07945660961
217.527190899       3.9220170192
218.027253407       3.75594948686
218.527315914       3.58288711546
219.027378422       3.40447085996
219.52744093       3.22232418794
220.027503438       3.03802928527
220.527565946       2.85310527171
221.027628454       2.66898881396
221.527690961       2.48701743898
222.027753469       2.30841576124
222.527815977       2.1342847474
223.027878485       1.96559405389
223.527940993       1.80317739002
224.0280035       1.64773078311
224.528066008       1.49981355643
225.028128516       1.35985177499
225.528191024       1.22814387101
226.028253532       1.10486812993
226.52831604       0.990091699012
227.028378547       0.883780773945
227.528441055       0.785811623142
228.028503563       0.695982123414
228.528566071       0.614023503375
229.028628579       0.539612020285
229.528691086       0.472380330743
230.028753594       0.411928353895
230.528816102       0.357833466189
231.02887861       0.309659907677
231.528941118       0.266967320201
232.029003625       0.229318376502
232.529066133       0.19628549542
233.029128641       0.167456671404
233.529191149       0.142440476046
234.029253657       0.120870315127
234.529316165       0.102408046687
235.029378672       0.0867470840098
235.52944118       0.0736151223139
236.029503688       0.0627766397703
236.529566196       0.0540353323202
237.029628704       0.0472366481204
237.529691211       0.0422705913848
238.029753719       0.0390749671241
238.529816227       0.0376392378043
239.029878735       0.0380091601438
239.529941243       0.040292364872
240.03000375       0.0446650338511
240.530066258       0.051379816939
241.030128766       0.0607751146134
241.530191274       0.0732858308347
242.030253782       0.0894556729852
242.53031629       0.109951040993
243.030378797       0.135576505016
243.530441305       0.167291819437
244.030503813       0.206230359795
244.530566321       0.253718798112
245.030628829       0.311297751004
245.530691336       0.380743044161
246.030753844       0.464087137446
246.530816352       0.563640148352
247.03087886       0.682009800401
247.530941368       0.822119510205
248.031003875       0.987223716264
248.531066383       1.18091944888
249.031128891       1.40715304906
249.531191399       1.67022087122
250.031253907       1.97476275616
250.531316415       2.32574704393
251.031378922       2.72844591805
251.53144143       3.1883999386
252.031503938       3.71137073877
252.531566446       4.30328103114
253.031628954       4.97014130059
253.531691461       5.71796285008
254.031753969       6.55265721411
254.531816477       7.47992235768
255.031878985       8.50511652961
255.531941493       9.63312112947
256.032004001       10.868194463
256.532066508       12.2138187879
257.032129016       13.6725435695
