#  x                 y             frequency           intensity
0.0       0.00699694160653       26.44       1.61023
0.500062507813       0.00859359176575       31.49       0.36593
1.00012501563       0.0105138023425       67.15       0.29354
1.50018752344       0.0128133919421       84.46       0.57117
2.00025003125       0.0155556528283       153.13       0.31078
2.50031253907       0.0188119076933       230.18       26.83744
3.00037504688       0.022662017062       244.42       12.49468
3.50043755469       0.0271948141407       262.37       6.39001
4.00050006251       0.0325084412228       307.42       5.99433
4.50056257032       0.0387105593674       333.63       100.24543
5.00062507813       0.0459184011415       335.34       1.16030
5.50068758595       0.0542586349193       368.13       0.91459
6.00075009376       0.0638670087281       422.10       1.11969
6.50081260158       0.0748877421062       431.50       7.97243
7.00087510939       0.0874726360313       501.03       6.50870
7.5009376172       0.101779873853       538.65       27.25878
8.00100012502       0.117972490424       561.37       29.55056
8.50106263283       0.136216492349       582.44       34.55249
9.00112514064       0.156678619506       604.08       54.94100
9.50118764846       0.179523746678       660.33       0.13534
10.0012501563       0.204911934252       731.85       1.83683
10.5013126641       0.232995148209       767.18       39.64140
11.0013751719       0.263913681977       783.66       98.15138
11.5014376797       0.297792325677       793.92       32.37644
12.0015001875       0.334736341595       814.78       12.15811
12.5015626953       0.374827317887       847.68       34.59428
13.0016252032       0.418118985017       861.66       29.18257
13.501687711       0.464633090838       887.26       29.39157
14.0017502188       0.514355439829       926.84       0.70852
14.5018127266       0.567232209432       957.63       17.45739
15.0018752344       0.623166661001       973.66       12.97694
15.5019377422       0.682016364263       1011.15       11.95916
16.00200025       0.743591051907       1036.34       0.22853
16.5020627578       0.807651214726       1081.60       32.26174
17.0021252657       0.873907537502       1118.31       76.25229
17.5021877735       0.942021261489       1150.96       28.12488
18.0022502813       1.01160554114       1190.64       170.41438
18.5023127891       1.08222784086       1198.98       6.55428
19.0023752969       1.15341339267       1224.50       49.35417
19.5024378047       1.2246497083       1234.27       13.88523
20.0025003125       1.29539210999       1248.13       2.82367
20.5025628204       1.36507021482       1287.80       105.33027
21.0026253282       1.43309527733       1317.67       2.15011
21.502687836       1.49886826725       1349.11       2.09429
22.0027503438       1.56178853297       1362.34       33.21796
22.5028128516       1.62126287866       1366.97       21.52760
23.0028753594       1.67671486485       1385.15       6.42817
23.5029378672       1.7275941285       1410.75       9.13874
24.003000375       1.77338551144       1474.36       18.58287
24.5030628829       1.81361778439       1491.51       6.32098
25.0031253907       1.84787175884       1551.83       100.60634
25.5031878985       1.87578759045       1635.51       13.35527
26.0032504063       1.89707109515       1652.80       44.27468
26.5033129141       1.91149892229       1659.81       44.03949
27.0033754219       1.91892245749       1808.37       277.05464
27.5034379297       1.91927035977       2996.73       33.26691
28.0035004376       1.91254967297       3020.88       32.89075
28.5035629454       1.89884548839       3101.85       8.77835
29.0036254532       1.8783191732       3149.46       17.30137
29.503687961       1.85120521605       3167.29       13.74048
30.0037504688       1.81780677648       3179.43       5.25092
30.5038129766       1.77849005657       3197.23       5.00833
31.0038754844       1.7336776413       3484.26       0.66798
31.5039379922       1.68384097731       3562.59       2.72124
32.0040005001       1.62949217727       3724.84       63.48085
32.5040630079       1.57117534851       3799.80       63.67525
33.0041255157       1.50945765064
33.5041880235       1.44492028568
34.0042505313       1.37814961845
34.5043130391       1.30972861262
35.0043755469       1.24022875187
35.5044380548       1.17020259457
36.0045005626       1.10017708713
36.5045630704       1.03064773501
37.0046255782       0.96207370355
37.504688086       0.894873893176
38.0047505938       0.829424006743
38.5048131016       0.766054601277
39.0048756095       0.705050092966
39.5049381173       0.646648663361
40.0050006251       0.591042997052
40.5050631329       0.538381766583
41.0051256407       0.488771769448
41.5051881485       0.442280614535
42.0052506563       0.398939851313
42.5053131641       0.358748434175
43.005375672       0.321676416318
43.5054381798       0.287668772113
44.0055006876       0.256649253498
44.5055631954       0.228524194337
45.0056257032       0.20318618627
45.505688211       0.180517560086
46.0057507188       0.160393617598
46.5058132267       0.142685570109
47.0058757345       0.127263150439
47.5059382423       0.113996876043
48.0060007501       0.102759950569
48.5060632579       0.0934298004071
49.0061257657       0.0858892510008
49.5061882735       0.0800273551113
50.0062507813       0.0757398916458
50.5063132892       0.0729295592195
51.006375797       0.0715058932664
51.5064383048       0.0713849393308
52.0065008126       0.0724887181829
52.5065633204       0.0747445206693
53.0066258282       0.078084071751
53.506688336       0.0824426040455
54.0067508439       0.0877578813761
54.5068133517       0.0939692123563
55.0068758595       0.101016492895
55.5069383673       0.108839314682
56.0070008751       0.117376174214
56.5070633829       0.126563813684
57.0071258907       0.136336721187
57.5071883985       0.146626813057
58.0072509064       0.157363315926
58.5073134142       0.168472860236
59.007375922       0.179879790566
59.5074384298       0.191506691384
60.0075009376       0.20327511976
60.5075634454       0.215106529485
61.0076259532       0.226923363991
61.5076884611       0.238650288709
62.0077509689       0.250215527358
62.5078134767       0.261552261176
63.0078759845       0.272600045665
63.5079384923       0.283306196185
64.0080010001       0.293627091817
64.5080635079       0.303529346611
65.0081260158       0.312990798605
65.5081885236       0.322001270022
66.0082510314       0.330563056723
66.5083135392       0.338691111381
67.008376047       0.346412892664
67.5084385548       0.353767861962
68.0085010626       0.360806619466
68.5085635704       0.367589682554
69.0086260783       0.374185921001
69.5086885861       0.38067067523
70.0087510939       0.387123595202
70.5088136017       0.393626248267
71.0088761095       0.400259553895
71.5089386173       0.407101111389
72.0090011251       0.414222493031
72.509063633       0.421686579444
73.0091261408       0.429545015887
73.5091886486       0.437835867805
74.0092511564       0.446581550897
74.5093136642       0.455787105518
75.009376172       0.465438877282
75.5094386798       0.475503655619
76.0095011876       0.485928309948
76.5095636955       0.496639949476
77.0096262033       0.507546617762
77.5096887111       0.518538517618
78.0097512189       0.529489746171
78.5098137267       0.540260504428
79.0098762345       0.550699731084
79.5099387423       0.560648097041
80.0100012502       0.569941285638
80.510063758       0.578413474342
81.0101262658       0.585900926979
81.5101887736       0.592245601656
82.0102512814       0.597298678614
82.5103137892       0.600923914292
83.010376297       0.603000732857
83.5104388049       0.60342697423
84.0105013127       0.602121227848
84.5105638205       0.599024693812
85.0106263283       0.594102527124
85.5106888361       0.587344636021
86.0107513439       0.578765921346
86.5108138517       0.568405959995
87.0108763595       0.556328151116
87.5109388674       0.542618358427
88.0110013752       0.527383095324
88.511063883       0.510747310846
89.0111263908       0.492851843868
89.5111888986       0.473850619733
90.0112514064       0.453907667822
90.5113139142       0.433194040277
91.0113764221       0.411884711213
91.5114389299       0.390155532499
92.0115014377       0.368180316763
92.5115639455       0.34612811092
93.0116264533       0.32416071471
93.5116889611       0.302430488722
94.0117514689       0.28107848565
94.5118139767       0.260232927514
95.0118764846       0.240008040575
95.5119389924       0.220503249165
96.0120015002       0.201802719877
96.512064008       0.18397523881
97.0121265158       0.167074397098
97.5121890236       0.151139053819
98.0122515314       0.136194040763
98.5123140393       0.122251070412
99.0123765471       0.109309806783
99.5124390549       0.0973590585301
100.012501563       0.0863780546009
100.512564071       0.0763377648076
101.012626578       0.0672022305985
101.512689086       0.0589298749515
102.012751594       0.0514747644574
102.512814102       0.0447878011139
103.01287661       0.038817825923
103.512939117       0.0335126209203
104.013001625       0.0288198006089
104.513064133       0.0246875878129
105.013126641       0.0210654726101
105.513189149       0.0179047561829
106.013251656       0.0151589841099
106.513314164       0.0127842757805
107.013376672       0.0107395582659
107.51343918       0.00898671414036
108.013501688       0.0074906534562
108.513564196       0.00621932037775
109.013626703       0.00514364493506
109.513689211       0.00423745001918
110.013751719       0.003477323171
110.513814227       0.00284246197109
111.013876735       0.00231450097276
111.513939242       0.00187732718441
112.01400175       0.00151689014328
112.514064258       0.00122101166667
113.014126766       0.00097919944899
113.514189274       0.000782467816005
114.014251781       0.00062316816836
114.514314289       0.000494830954848
115.014376797       0.000392020418692
115.514439305       0.000310202857836
116.014501813       0.000245628731263
116.514564321       0.000195228622509
117.014626828       0.000156522832042
117.514689336       0.000127544203511
118.014751844       0.000106773685808
118.514814352       9.30880836799e-05
119.01487686       8.57194443707e-05
119.514939367       8.42255567768e-05
120.015001875       8.84710933076e-05
120.515064383       9.86189940369e-05
121.015126891       0.00011513176907
121.515189399       0.000138782470092
122.015251906       0.000170675147895
122.515314414       0.000212274661865
123.015376922       0.000265445732684
123.51543943       0.000332501124295
124.015501938       0.000416258799013
124.515564446       0.000520107804922
125.015626953       0.00064808252231
125.515689461       0.000804944711846
126.015751969       0.000996272568604
126.515814477       0.00122855569171
127.015876985       0.00150929452997
127.515939492       0.00184710246241
128.016002       0.00225180822477
128.516064508       0.00273455590804
129.016127016       0.00330789924431
129.516189524       0.00398588637593
130.016252032       0.00478413079402
130.516314539       0.00571986365637
131.016377047       0.00681196227851
131.516439555       0.00808094926436
132.016502063       0.00954895653626
132.516564571       0.0112396484699
133.016627078       0.0131780984702
133.516689586       0.0153906136702
134.016752094       0.0179045030203
134.516814602       0.0207477848863
135.01687711       0.0239488313978
135.516939617       0.0275359481977
136.017002125       0.0315368899192
136.517064633       0.0359783136557
137.017127141       0.0408851748427
137.517189649       0.0462800723034
138.017252157       0.0521825516522
138.517314664       0.0586083787343
139.017377172       0.0655687972084
139.51743968       0.073069786668
140.017502188       0.0811113397291
140.517564696       0.0896867781878
141.017627203       0.0987821295701
141.517689711       0.108375586043
142.017752219       0.118437067663
142.517814727       0.128927911232
143.017877235       0.139800704528
143.517939742       0.150999283445
144.01800225       0.162458906505
144.518064758       0.174106617417
145.018127266       0.185861801932
145.518189774       0.197636940223
146.018252282       0.209338550581
146.518314789       0.220868314573
147.018377297       0.23212436803
147.518439805       0.243002736659
148.018502313       0.25339888979
148.518564821       0.263209381089
149.018627328       0.272333541108
149.518689836       0.280675183541
150.018752344       0.288144285115
150.518814852       0.294658598316
151.01887736       0.300145156673
151.518939867       0.304541634153
152.019002375       0.307797523259
152.519064883       0.309875100737
153.019127391       0.310750155056
153.519189899       0.310412456052
154.019252407       0.308865954004
154.519314914       0.306128702718
155.019377422       0.30223250872
155.51943993       0.297222316079
156.019502438       0.291155343506
156.519564946       0.284099996891
157.019627453       0.276134586158
157.519689961       0.267345880084
158.019752469       0.257827536324
158.519814977       0.247678446273
159.019877485       0.237001035477
159.519939992       0.225899560169
160.0200025       0.214478439022
160.520065008       0.202840656745
161.020127516       0.191086272521
161.520190024       0.179311061948
162.020252532       0.16760531608
162.520315039       0.156052815703
163.020377547       0.144729993271
163.520440055       0.133705289184
164.020502563       0.123038703556
164.520565071       0.112781539381
165.020627578       0.102976328324
165.520690086       0.0936569262461
166.020752594       0.084848762205
166.520815102       0.0765692220681
167.02087761       0.0688281460175
167.520940118       0.0616284182064
168.021002625       0.0549666265051
168.521065133       0.048833770652
169.021127641       0.0432159981047
169.521190149       0.0380953483684
170.021252657       0.0334504884671
170.521315164       0.0292574244126
171.021377672       0.0254901759036
171.52144018       0.0221214039587
172.021502688       0.0191229836569
172.521565196       0.0164665165512
173.021627703       0.0141237795579
173.521690211       0.0120671091643
174.021752719       0.0102697215922
174.521815227       0.00870597108285
175.021877735       0.00735154971998
175.521940243       0.00618363317436
176.02200275       0.00518097745559
176.522065258       0.00432397220367
177.022127766       0.00359465627381
177.522190274       0.00297670138988
178.022252782       0.00245536949616
178.522315289       0.00201744915689
179.022377797       0.00165117596864
179.522440305       0.00134614149433
180.022502813       0.00109319472543
180.522565321       0.000884339556937
181.022627828       0.00071263123893
181.522690336       0.000572074266707
182.022752844       0.00045752370373
182.522815352       0.000364591508572
183.02287786       0.000289559067704
183.522940368       0.000229296826142
184.023002875       0.00018119166198
184.523065383       0.000143082471638
185.023127891       0.000113204322445
185.523190399       9.01414900225e-05
186.023252907       7.27897322475e-05
186.523315414       6.0328262733e-05
187.023377922       5.22020792962e-05
187.52344043       4.81155832509e-05
188.023502938       4.80388018233e-05
188.523565446       5.22280091717e-05
189.023627953       6.12631442566e-05
189.523690461       7.61051613314e-05
190.023752969       9.81773383407e-05
190.523815477       0.000129475628916
191.023877985       0.000172714394882
191.523940493       0.000231515318228
192.024003       0.000310648983235
192.524065508       0.000416340556951
193.024128016       0.000556653190682
193.524190524       0.000741965220661
194.024253032       0.000985559956127
194.524315539       0.00130434978794
195.024378047       0.00171975949301
195.524440555       0.0022587968904
196.024503063       0.00295534233915
196.524565571       0.00385169184027
197.024628079       0.0050003915662
197.524690586       0.00646640430329
198.024753094       0.0083296503261
198.524815602       0.0106879663575
199.02487811       0.013660526191
199.524940618       0.0173917649104
200.025003125       0.0220558450497
200.525065633       0.0278616970857
201.025128141       0.035058657923
201.525190649       0.0439427191012
202.025253157       0.0548633809432
202.525315664       0.0682310894313
203.025378172       0.084525209004
203.52544068       0.104302456573
204.025503188       0.128205689896
204.525565696       0.15697290723
205.025628204       0.191446275358
205.525690711       0.232580960371
206.025753219       0.281453490993
206.525815727       0.339269339018
207.025878235       0.407369357346
207.525940743       0.487234674961
208.02600325       0.58048961231
208.526065758       0.688902152418
209.026128266       0.81438148527
209.526190774       0.958972138335
210.026253282       1.12484421731
210.526315789       1.31427931074
211.026378297       1.52965166234
211.526440805       1.77340428768
212.026503313       2.0480198079
212.526565821       2.35598589345
213.026628329       2.69975535408
213.526690836       3.08170107649
214.026753344       3.50406619417
214.526815852       3.96891007254
215.02687836       4.4780508989
215.526940868       5.03300587653
216.027003375       5.63493022645
216.527065883       6.28455639053
217.027128391       6.98213499757
217.527190899       7.72737928932
218.027253407       8.51941479764
218.527315914       9.35673610854
219.027378422       10.2371725359
219.52744093       11.1578644521
220.027503438       12.1152518791
220.527565946       13.1050767328
221.027628454       14.1223998345
221.527690961       15.1616334599
222.027753469       16.2165898004
222.527815977       17.2805452639
223.027878485       18.3463200685
223.527940993       19.4063720859
224.0280035       20.4529033962
224.528066008       21.4779775415
225.028128516       22.4736450234
225.528191024       23.4320742128
226.028253532       24.3456845281
226.52831604       25.2072785255
227.028378547       26.0101694312
227.528441055       26.7483006451
228.028503563       27.4163538666
228.528566071       28.0098427318
229.028628579       28.5251892029
229.528691086       28.9597804142
230.028753594       29.3120042262
230.528816102       29.5812623701
231.02887861       29.7679607378
231.528941118       29.8734770832
232.029003625       29.9001071022
232.529066133       29.8509905462
233.029128641       29.7300196491
233.529191149       29.541732704
234.029253657       29.2911960792
234.529316165       28.983878306
235.029378672       28.6255200744
235.52944118       28.2220040521
236.029503688       27.7792283676
236.529566196       27.3029873996
237.029628704       26.7988631775
237.529691211       26.2721302551
238.029753719       25.7276763763
238.529816227       25.1699406388
239.029878735       24.6028701984
239.529941243       24.0298958742
240.03000375       23.4539263366
240.530066258       22.8773599152
241.030128766       22.3021124714
241.530191274       21.7296592711
242.030253782       21.1610883738
242.53031629       20.5971627451
243.030378797       20.0383881102
243.530441305       19.485083493
244.030503813       18.9374514329
244.530566321       18.3956450344
245.030628829       17.859829264
245.530691336       17.3302342644
246.030753844       16.8071988725
246.530816352       16.2912030057
247.03087886       15.7828880836
247.530941368       15.2830651646
248.031003875       14.7927109859
248.531066383       14.3129525659
249.031128891       13.8450414605
249.531191399       13.3903191325
250.031253907       12.9501751898
250.531316415       12.5260004677
251.031378922       12.1191370624
251.53144143       11.7308274718
252.031503938       11.3621649664
252.531566446       11.0140471988
253.031628954       10.6871348793
253.531691461       10.3818171038
254.031753969       10.0981846276
254.531816477       9.83601205521
255.031878985       9.59474956658
255.531941493       9.3735244445
256.032004001       9.17115231596
