#  x                 y             frequency           intensity
0.0       0.000412140334986       34.22       3.87425
0.500062507813       0.000537424404447       51.23       1.23725
1.00012501563       0.000698060078016       53.88       1.87727
1.50018752344       0.000903173899322       71.90       1.54424
2.00025003125       0.00116400037914       169.75       7.71761
2.50031253907       0.00149430083498       201.39       6.95599
3.00037504688       0.00191084798862       277.96       14.32758
3.50043755469       0.00243398239846       307.97       11.93334
4.00050006251       0.00308824631714       339.48       88.27360
4.50056257032       0.00390309974369       346.06       11.66688
5.00062507813       0.00491372222258       353.54       16.45501
5.50068758595       0.00616190226857       420.67       6.30811
6.00075009376       0.00769701410947       424.84       3.04283
6.50081260158       0.00957707868794       433.13       5.75435
7.00087510939       0.0118699025112       493.22       9.74889
7.5009376172       0.0146542839608       531.34       17.76090
8.00100012502       0.018021272075       541.26       6.80750
8.50106263283       0.0220754576166       617.58       1.12390
9.00112514064       0.0269362705065       659.87       0.50431
9.50118764846       0.0327392515264       721.19       10.28383
10.0012501563       0.039637259715       738.17       0.56829
10.5013126641       0.0478015702927       786.89       12.55776
11.0013751719       0.0574228114633       815.08       27.24365
11.5014376797       0.0687116823544       840.41       34.62901
12.0015001875       0.0818993889762       849.32       76.39206
12.5015626953       0.0972377307619       859.67       30.99265
13.0016252032       0.114998767393       879.57       36.30655
13.501687711       0.1354739946       885.14       60.59269
14.0017502188       0.158972958862       926.16       37.96027
14.5018127266       0.18582124483       931.74       14.81081
15.0018752344       0.216357776107       966.61       0.27148
15.5019377422       0.250931380168       1033.95       22.79787
16.00200025       0.289896581736       1037.03       45.17396
16.5020627578       0.333608606003       1112.21       22.63496
17.0021252657       0.382417593647       1118.01       7.17098
17.5021877735       0.436662053397       1145.56       10.79021
18.0022502813       0.496661604565       1189.32       187.52684
18.5023127891       0.562709090995       1198.57       3.81370
19.0023752969       0.635062178387       1210.49       16.88930
19.5024378047       0.713934578231       1233.93       2.36841
20.0025003125       0.799487072304       1249.85       0.78525
20.5025628204       0.891818540847       1289.82       106.68222
21.0026253282       0.990957223702       1294.30       3.66883
21.502687836       1.09685246552       1340.49       5.29326
22.0027503438       1.20936721239       1364.20       21.86774
22.5028128516       1.32827153625       1368.61       21.18096
23.0028753594       1.45323746487       1396.67       8.00129
23.5029378672       1.5838353867       1409.27       475.01935
24.003000375       1.71953228247       1473.71       16.03835
24.5030628829       1.85969200718       1492.15       5.27134
25.0031253907       2.00357780808       1552.12       100.50610
25.5031878985       2.15035721613       1633.59       15.17573
26.0032504063       2.29910939173       1658.61       63.22899
26.5033129141       2.44883494077       1662.10       6.21711
27.0033754219       2.59846814637       1834.90       326.53398
27.5034379297       2.7468914875       3029.51       9.07283
28.0035004376       2.89295223896       3045.73       14.90422
28.5035629454       3.03548087263       3098.53       4.63702
29.0036254532       3.1733109082       3150.55       18.08442
29.503687961       3.30529979697       3161.32       9.25437
30.0037504688       3.43035036673       3168.15       11.07538
30.5038129766       3.54743231213       3196.14       3.76890
31.0038754844       3.65560318513       3450.99       245.80431
31.5039379922       3.75402832615       3493.21       1.85020
32.0040005001       3.84199917976       3575.86       6.93469
32.5040630079       3.91894945933       3799.14       67.62280
33.0041255157       3.98446866387
33.5041880235       4.0383125057
34.0042505313       4.08040987928
34.5043130391       4.11086608711
35.0043755469       4.12996213541
35.5044380548       4.13815001793
36.0045005626       4.1360440172
36.5045630704       4.12440816481
37.0046255782       4.10414011293
37.504688086       4.07625177435
38.0047505938       4.04184718387
38.5048131016       4.00209811766
39.0048756095       3.95821807555
39.5049381173       3.91143528249
40.0050006251       3.86296539738
40.5050631329       3.81398462979
41.0051256407       3.76560395645
41.5051881485       3.71884510114
42.0052506563       3.67461889361
42.5053131641       3.63370655792
43.005375672       3.59674439945
43.5054381798       3.5642122658
44.0055006876       3.53642605252
44.5055631954       3.51353441332
45.0056257032       3.49551971979
45.505688211       3.48220320006
46.0057507188       3.47325407435
46.5058132267       3.46820239902
47.0058757345       3.46645523463
47.5059382423       3.46731566843
48.0060007501       3.47000415132
48.5060632579       3.47368155437
49.0061257657       3.47747331254
49.5061882735       3.48049400355
50.0062507813       3.48187170844
50.5063132892       3.48077151709
51.006375797       3.47641757567
51.5064383048       3.46811312286
52.0065008126       3.45525802563
52.5065633204       3.43736340198
53.0066258282       3.41406300393
53.506688336       3.38512112788
54.0067508439       3.35043691723
54.5068133517       3.31004502194
55.0068758595       3.26411267843
55.5069383673       3.21293336764
56.0070008751       3.15691729746
56.5070633829       3.09657903511
57.0071258907       3.03252268385
57.5071883985       2.96542505434
58.0072509064       2.89601732371
58.5073134142       2.82506570322
59.007375922       2.75335164845
59.5074384298       2.68165214403
60.0075009376       2.61072057859
60.5075634454       2.54126869591
61.0076259532       2.47395006582
61.5076884611       2.40934546554
62.0077509689       2.34795049997
62.5078134767       2.29016572042
63.0078759845       2.2362894274
63.5079384923       2.1865132658
64.0080010001       2.14092064418
64.5080635079       2.09948793332
65.0081260158       2.06208832762
65.5081885236       2.02849818578
66.0082510314       1.99840560769
66.5083135392       1.97142095326
67.008376047       1.94708896737
67.5084385548       1.92490214423
68.0085010626       1.90431494418
68.5085635704       1.88475846722
69.0086260783       1.86565519005
69.5086885861       1.84643338588
70.0087510939       1.82654086981
70.5088136017       1.80545774388
71.0088761095       1.78270785628
71.5089386173       1.7578687347
72.0090011251       1.7305798055
72.509063633       1.70054876387
73.0091261408       1.66755601662
73.5091886486       1.63145717407
74.0092511564       1.59218362189
74.5093136642       1.54974125369
75.009376172       1.50420749105
75.5094386798       1.4557267574
76.0095011876       1.40450460537
76.5095636955       1.3508007221
77.0096262033       1.29492105539
77.5096887111       1.23720931217
78.0097512189       1.17803808294
78.5098137267       1.11779983953
79.0098762345       1.05689804065
79.5099387423       0.995738560915
80.0100012502       0.934721634657
80.510063758       0.874234478131
81.0101262658       0.814644722585
81.5101887736       0.756294758339
82.0102512814       0.699497057031
82.5103137892       0.644530506916
83.010376297       0.591637765462
83.5104388049       0.541023605376
84.0105013127       0.492854205244
84.5105638205       0.447257314842
85.0106263283       0.404323208052
85.5106888361       0.364106323537
86.0107513439       0.326627484791
86.5108138517       0.29187658678
87.0108763595       0.259815635826
87.5109388674       0.230382032295
88.0110013752       0.203491991552
88.511063883       0.179044006954
89.0111263908       0.156922268932
89.5111888986       0.136999965766
90.0112514064       0.119142404026
90.5113139142       0.103209899326
91.0113764221       0.0890604004998
91.5114389299       0.0765518222614
92.0115014377       0.0655440724544
92.5115639455       0.0559007699516
93.0116264533       0.0474906579046
93.5116889611       0.0401887243181
94.0117514689       0.0338770477645
94.5118139767       0.0284453904986
95.0118764846       0.0237915643379
95.5119389924       0.0198215965593
96.0120015002       0.0164497238479
96.512064008       0.0135982421751
97.0121265158       0.0111972395463
97.5121890236       0.00918423699234
98.0122515314       0.00750376115491
98.5123140393       0.00610686946542
99.0123765471       0.00495064638593
99.5124390549       0.00399768657239
100.012501563       0.00321557823906
100.512564071       0.00257639752371
101.012626578       0.00205622233617
101.512689086       0.00163467206105
102.012751594       0.00129447760562
102.512814102       0.0010210846509
103.01287661       0.000802291578114
103.512939117       0.000627922399706
104.013001625       0.00048953410774
104.513064133       0.000380157145358
105.013126641       0.000294067186424
105.513189149       0.000226586050364
106.013251656       0.000173909359598
106.513314164       0.00013295844181
107.013376672       0.000101253966281
107.51343918       7.68088621591e-05
108.013501688       5.80381784771e-05
108.513564196       4.3683695137e-05
109.013626703       3.27512675854e-05
109.513689211       2.44590743519e-05
110.013751719       1.81951272736e-05
110.513814227       1.34825922095e-05
111.013876735       9.95164831959e-06
111.513939242       7.31678301779e-06
112.01400175       5.35857523361e-06
112.514064258       3.90916041304e-06
113.014126766       2.84069633261e-06
113.514189274       2.05625949136e-06
114.014251781       1.4826982342e-06
114.514314289       1.06505179993e-06
115.014376797       7.62215324649e-07
115.514439305       5.43590710087e-07
116.014501813       3.86513458702e-07
116.514564321       2.74287332381e-07
117.014626828       1.94693199321e-07
117.514689336       1.38866804945e-07
118.014751844       1.0046345649e-07
118.514814352       7.50466740767e-08
119.01487686       5.96535722202e-08
119.514939367       5.25028567274e-08
120.015001875       5.28225521766e-08
120.515064383       6.07845707215e-08
121.015126891       7.75426280262e-08
121.515189399       1.05379443776e-07
122.015251906       1.47979299874e-07
122.515314414       2.10853597478e-07
123.015376922       3.01960877501e-07
123.51543943       4.32579802882e-07
124.015501938       6.18514972443e-07
124.515564446       8.81742489922e-07
125.015626953       1.25263655719e-06
125.515689461       1.77296192186e-06
126.015751969       2.49987207751e-06
126.515814477       3.51122239805e-06
127.015876985       4.91259405977e-06
127.515939492       6.84653234417e-06
128.016002       9.50463593222e-06
128.516064508       1.31432968474e-05
129.016127016       1.81040890518e-05
129.516189524       2.48400430808e-05
130.016252032       3.39493306102e-05
130.516314539       4.62182227658e-05
131.016377047       6.26755855365e-05
131.516439555       8.46616406866e-05
132.016502063       0.000113914256091
132.516564571       0.00015267663909
133.016627078       0.000203830991874
133.516689586       0.000271063447719
134.016752094       0.000359066436141
134.516814602       0.000473785513479
135.01687711       0.000622718627336
135.516939617       0.00081527673498
136.017002125       0.00106321563562
136.517064633       0.00138114976251
137.017127141       0.00178715946045
137.517189649       0.00230350388358
138.017252157       0.00295745200982
138.517314664       0.00378224429467
139.017377172       0.0048181970762
139.51743968       0.00611396088649
140.017502188       0.00772794220255
140.517564696       0.0097298957613
141.017627203       0.0122026912464
141.517689711       0.0152442538148
142.017752219       0.0189696724664
142.517814727       0.0235134635969
143.017877235       0.0290319691586
143.517939742       0.0357058596923
144.01800225       0.0437427021299
144.518064758       0.0533795408191
145.018127266       0.0648854278771
145.518189774       0.0785638260132
146.018252282       0.0947547937309
146.518314789       0.113836849782
147.018377297       0.136228401446
147.518439805       0.162388610265
148.018502313       0.192817560029
148.518564821       0.228055585737
149.018627328       0.268681619909
149.518689836       0.315310414591
150.018752344       0.368588504649
150.518814852       0.429188790946
151.01887736       0.49780364155
151.518939867       0.575136435336
152.019002375       0.661891505649
152.519064883       0.758762481818
153.019127391       0.866419072903
153.519189899       0.985492390421
154.019252407       1.11655896379
154.519314914       1.26012366237
155.019377422       1.4166017997
155.51943993       1.58630075627
156.019502438       1.76940151521
156.519564946       1.96594055732
157.019627453       2.17579260612
157.519689961       2.39865474649
158.019752469       2.63403246043
158.519814977       2.88122812748
159.019877485       3.13933252409
159.519939992       3.40721982432
160.0200025       3.68354655234
160.520065008       3.96675486666
161.020127516       4.25508046613
161.520190024       4.54656530122
162.020252532       4.83907515319
162.520315039       5.13032201138
163.020377547       5.41789103932
163.520440055       5.69927177832
164.020502563       5.97189309696
164.520565071       6.23316126292
165.020627578       6.48050039323
165.520690086       6.71139443744
166.020752594       6.92342976811
166.520815102       7.11433739925
167.02087761       7.28203382885
167.520940118       7.424659508
168.021002625       7.54061397762
168.521065133       7.62858678357
169.021127641       7.68758338048
169.521190149       7.71694536137
170.021252657       7.71636449915
170.521315164       7.68589025323
171.021377672       7.62593057364
171.52144018       7.53724601952
172.021502688       7.42093739287
172.521565196       7.27842726424
173.021627703       7.11143592989
173.521690211       6.92195248211
174.021752719       6.71220179316
174.521815227       6.48460830273
175.021877735       6.2417575573
175.521940243       5.98635647598
176.02200275       5.72119330979
176.522065258       5.44909822266
177.022127766       5.17290535401
177.522190274       4.89541712794
178.022252782       4.61937145785
178.522315289       4.34741236238
179.022377797       4.08206436419
179.522440305       3.82571089385
180.022502813       3.58057677237
180.522565321       3.34871470297
181.022627828       3.13199557202
181.522690336       2.93210224362
182.022752844       2.75052643737
182.522815352       2.58856820642
183.02287786       2.44733748548
183.522940368       2.32775715654
184.023002875       2.23056708426
184.523065383       2.15632860134
185.023127891       2.1054289758
185.523190399       2.07808546306
186.023252907       2.07434863378
186.523315414       2.09410476817
187.023377922       2.13707721581
187.52344043       2.20282673125
188.023502938       2.29075090524
188.523565446       2.40008291507
189.023627953       2.52988991005
189.523690461       2.6790714262
190.023752969       2.8463582836
190.523815477       3.03031245853
191.023877985       3.22932843754
191.523940493       3.4416365517
192.024003       3.66530875537
192.524065508       3.89826725651
193.024128016       4.13829632557
193.524190524       4.38305751071
194.024253032       4.63010837196
194.524315539       4.87692471881
195.024378047       5.1209262019
195.524440555       5.35950497208
196.024503063       5.59005698733
196.524565571       5.81001542328
197.024628079       6.01688553266
197.524690586       6.20828020729
198.024753094       6.38195542731
198.524815602       6.53584473995
199.02487811       6.66809189584
199.524940618       6.77708078695
200.025003125       6.86146187545
200.525065633       6.92017437741
201.025128141       6.95246356603
201.525190649       6.95789268259
202.025253157       6.93634908636
202.525315664       6.88804443061
203.025378172       6.81350881631
203.52544068       6.71357904181
204.025503188       6.58938122888
204.525565696       6.44230825904
205.025628204       6.27399259155
205.525690711       6.0862751529
206.025753219       5.88117108227
206.525815727       5.66083318572
207.025878235       5.42751399198
207.525940743       5.18352731405
208.02600325       4.93121020418
208.526065758       4.67288614587
209.026128266       4.41083025931
209.526190774       4.14723720794
210.026253282       3.88419238889
210.526315789       3.62364687238
211.026378297       3.36739643024
211.526440805       3.11706486549
212.026503313       2.87409172876
212.526565821       2.63972438622
213.026628329       2.41501429314
213.526690836       2.20081722793
214.026753344       1.99779715834
214.526815852       1.80643334389
215.02687836       1.62703022933
215.526940868       1.45972965135
216.027003375       1.30452486602
216.527065883       1.16127590523
217.027128391       1.02972578578
217.527190899       0.909517122531
218.027253407       0.800208735046
218.527315914       0.701291883082
219.027378422       0.612205817627
219.52744093       0.532352388754
220.027503438       0.461109507124
220.527565946       0.397843310598
221.027628454       0.341918939415
221.527690961       0.292709871474
222.027753469       0.249605812259
222.527815977       0.212019171274
223.027878485       0.179390187999
223.527940993       0.151190795242
224.0280035       0.126927326432
224.528066008       0.106142186262
225.028128516       0.0884146114727
225.528191024       0.0733606512445
226.028253532       0.0606324951982
226.52831604       0.0499172721052
227.028378547       0.0409354348698
227.528441055       0.0334388377857
228.028503563       0.0272086011712
228.528566071       0.0220528468251
229.028628579       0.01780437583
229.528691086       0.014318348473
230.028753594       0.0114700148188
230.528816102       0.0091525339969
231.02887861       0.00727491075295
231.528941118       0.00576006937223
232.029003625       0.00454307777466
232.529066133       0.00356952840787
233.029128641       0.00279407749939
233.529191149       0.00217914020683
234.029253657       0.00169373614283
234.529316165       0.00131247755281
235.029378672       0.00101469098448
235.52944118       0.000783662505042
236.029503688       0.000605996294981
236.529566196       0.000471076683811
237.029628704       0.00037062431014
237.529691211       0.00029833801434
238.029753719       0.000249615246887
238.529816227       0.000221345150716
239.029878735       0.000211770013856
239.529941243       0.000220412461236
240.03000375       0.000248067541327
240.530066258       0.00029686074994
241.030128766       0.000370375008785
241.530191274       0.000473851670472
242.030253782       0.000614472742582
242.53031629       0.000801733694766
243.030378797       0.00104791841056
243.530441305       0.00136869003477
244.030503813       0.00178381359971
244.530566321       0.00231802832409
245.030628829       0.00300208928328
245.530691336       0.00387399964379
246.030753844       0.00498045571079
246.530816352       0.00637852750378
247.03087886       0.0081375972804
247.530941368       0.0103415771765
248.031003875       0.013091424713
248.531066383       0.016507971114
249.031128891       0.0207350719646
249.531191399       0.0259430824892
250.031253907       0.0323326504614
250.531316415       0.0401388082962
251.031378922       0.0496353321211
251.53144143       0.0611393195323
252.031503938       0.0750159193724
252.531566446       0.0916831263776
253.031628954       0.111616531235
253.531691461       0.135353892908
254.031753969       0.163499375625
254.531816477       0.196727268489
255.031878985       0.235784982135
255.531941493       0.281495095456
256.032004001       0.334756207261
256.532066508       0.396542334323
257.032129016       0.467900589981
