#  x                 y             frequency           intensity
0.0       0.00157682198675       29.69       1.54395
0.500062507813       0.00198464488551       51.98       0.60488
1.00012501563       0.00248820449579       53.68       0.89002
1.50018752344       0.00310736630104       62.20       0.39423
2.00025003125       0.0038654668577       171.48       1.39479
2.50031253907       0.00478976911637       200.99       1.78568
3.00037504688       0.00591194424628       290.79       57.41433
3.50043755469       0.00726857384897       298.28       6.39926
4.00050006251       0.00890166435472       315.66       5.22979
4.50056257032       0.0108591630895       338.48       97.64344
5.00062507813       0.0131954630182       352.86       2.90797
5.50068758595       0.0159718805714       402.92       15.10099
6.00075009376       0.0192570883153       423.62       1.14651
6.50081260158       0.0231274816307       432.90       4.93466
7.00087510939       0.0276674561241       486.32       1.03931
7.5009376172       0.0329695703443       515.90       37.87863
8.00100012502       0.0391345666512       539.66       19.05218
8.50106263283       0.0462712219425       585.89       49.90972
9.00112514064       0.0544959995425       625.61       48.86419
9.50118764846       0.063932474054       659.69       0.34506
10.0012501563       0.0747105025297       727.65       26.99575
10.5013126641       0.0869651180511       744.44       38.39406
11.0013751719       0.100835125844       781.17       14.06308
11.5014376797       0.116461387458       816.02       19.50961
12.0015001875       0.133984785357       837.56       33.21188
12.5015626953       0.153543868433       847.80       65.65337
13.0016252032       0.175272188471       858.19       12.64736
13.501687711       0.199295348167       883.70       15.85345
14.0017502188       0.22572779288       935.74       4.32610
14.5018127266       0.254669390454       942.85       7.79079
15.0018752344       0.286201855849       961.30       0.45817
15.5019377422       0.320385089605       1012.26       4.72821
16.00200025       0.35725351078       1035.92       0.17444
16.5020627578       0.396812475459       1121.14       54.27413
17.0021252657       0.439034880724       1129.99       22.70646
17.5021877735       0.483858060552       1142.19       315.40905
18.0022502813       0.531181083969       1182.26       44.49189
18.5023127891       0.580862566506       1194.17       128.69012
19.0023752969       0.63271910318       1198.75       0.33703
19.5024378047       0.686524424633       1233.91       1.54597
20.0025003125       0.742009367553       1270.43       1.10229
20.5025628204       0.79886273604       1287.52       101.84588
21.0026253282       0.856733112418       1303.48       2.41083
21.502687836       0.915231654366       1337.28       28.30893
22.0027503438       0.973935890709       1342.31       4.00085
22.5028128516       1.03239450137       1363.58       20.84480
23.0028753594       1.09013303866       1367.16       24.20637
23.5029378672       1.14666051814       1425.03       17.42211
24.003000375       1.2014767787       1473.47       18.25547
24.5030628829       1.25408048434       1484.83       2.94525
25.0031253907       1.30397761539       1551.28       104.36671
25.5031878985       1.35069027547       1634.05       14.28034
26.0032504063       1.3937656234       1645.94       35.70644
26.5033129141       1.43278472738       1659.23       45.66814
27.0033754219       1.46737113207       1815.80       284.69259
27.5034379297       1.49719892919       2912.02       36.96978
28.0035004376       1.52200012784       3061.92       12.60244
28.5035629454       1.54157113287       3105.27       7.89712
29.0036254532       1.55577815769       3151.87       18.97149
29.503687961       1.56456142095       3160.93       8.84795
30.0037504688       1.56793800447       3178.07       7.06510
30.5038129766       1.56600328178       3195.05       4.75461
31.0038754844       1.55893086037       3497.05       0.61139
31.5039379922       1.54697101753       3578.10       11.19863
32.0040005001       1.53044764529       3725.28       66.84700
32.5040630079       1.50975375623       3799.36       64.95429
33.0041255157       1.48534563538
33.5041880235       1.45773575479
34.0042505313       1.42748459453
34.5043130391       1.39519153687
35.0043755469       1.36148501871
35.5044380548       1.3270121403
36.0045005626       1.29242793594
36.5045630704       1.25838451532
37.0046255782       1.22552028171
37.504688086       1.19444942659
38.0047505938       1.16575188994
38.5048131016       1.13996396101
39.0048756095       1.11756967819
39.5049381173       1.09899316727
40.0050006251       1.08459203738
40.5050631329       1.07465193234
41.0051256407       1.06938231322
41.5051881485       1.06891352599
42.0052506563       1.07329518615
42.5053131641       1.08249589052
43.005375672       1.09640424582
43.5054381798       1.11483118268
44.0055006876       1.13751350484
44.5055631954       1.16411860382
45.0056257032       1.19425025198
45.505688211       1.22745536985
46.0057507188       1.26323164807
46.5058132267       1.30103589019
47.0058757345       1.34029293008
47.5059382423       1.38040496739
48.0060007501       1.42076115651
48.5060632579       1.46074727911
49.0061257657       1.49975532819
49.5061882735       1.53719283263
50.0062507813       1.57249175592
50.5063132892       1.60511681105
51.006375797       1.63457304567
51.5064383048       1.66041256701
52.0065008126       1.68224029538
52.5065633204       1.69971865621
53.0066258282       1.71257114551
53.506688336       1.72058472877
54.0067508439       1.72361106069
54.5068133517       1.72156653979
55.0068758595       1.71443123841
55.5069383673       1.70224677318
56.0070008751       1.68511320384
56.5070633829       1.6631850675
57.0071258907       1.63666667156
57.5071883985       1.60580678031
58.0072509064       1.57089283807
58.5073134142       1.53224487479
59.007375922       1.49020923914
59.5074384298       1.44515229887
60.0075009376       1.39745423955
60.5075634454       1.34750308051
61.0076259532       1.29568901227
61.5076884611       1.24239914337
62.0077509689       1.18801272647
62.5078134767       1.13289691544
63.0078759845       1.0774030873
63.5079384923       1.02186374512
64.0080010001       0.966590002587
64.5080635079       0.911869636295
65.0081260158       0.857965679954
65.5081885236       0.805115524727
66.0082510314       0.753530482437
66.5083135392       0.703395763192
67.008376047       0.654870815989
67.5084385548       0.608089979881
68.0085010626       0.563163394052
68.5085635704       0.520178117356
69.0086260783       0.479199411225
69.5086885861       0.440272143926
70.0087510939       0.403422278845
70.5088136017       0.368658414235
71.0088761095       0.33597334672
71.5089386173       0.305345635378
72.0090011251       0.27674114747
72.509063633       0.250114570566
73.0091261408       0.225410879056
73.5091886486       0.20256674568
74.0092511564       0.181511890866
74.5093136642       0.162170364361
75.009376172       0.1444617549
75.5094386798       0.128302324674
76.0095011876       0.113606066031
76.5095636955       0.100285678465
77.0096262033       0.0882534643829
77.5096887111       0.0774221426293
78.0097512189       0.0677055791644
78.5098137267       0.0590194348259
79.0098762345       0.0512817306395
79.5099387423       0.0444133317694
80.0100012502       0.0383383518586
80.510063758       0.0329844802064
81.0101262658       0.0282832349322
81.5101887736       0.0241701459594
82.0102512814       0.0205848722893
82.5103137892       0.0174712586032
83.010376297       0.014777336699
83.5104388049       0.0124552776344
84.0105013127       0.010461300683
84.5105638205       0.00875554532725
85.0106263283       0.0073019124892
85.5106888361       0.0060678810701
86.0107513439       0.0050243056171
86.5108138517       0.00414520059331
87.0108763595       0.0034075163026
87.5109388674       0.0027909110344
88.0110013752       0.00227752346618
88.511063883       0.00185174880889
89.0111263908       0.00150002162256
89.5111888986       0.00121060768046
90.0112514064       0.000973406734306
90.5113139142       0.00077976754148
91.0113764221       0.000622316065994
91.5114389299       0.000494797364342
92.0115014377       0.000391931318848
92.5115639455       0.000309282085749
93.0116264533       0.000243140882647
93.5116889611       0.000190421547812
94.0117514689       0.000148568158713
94.5118139767       0.000115473894745
95.0118764846       8.94102645184e-05
95.5119389924       6.89657860115e-05
96.0120015002       5.2993203117e-05
96.512064008       4.05643394902e-05
97.0121265158       3.0931725305e-05
97.5121890236       2.34961801252e-05
98.0122515314       1.77795916776e-05
98.5123140393       1.34021924813e-05
99.0123765471       1.00637011814e-05
99.5124390549       7.52776072429e-06
100.012501563       5.60916936533e-06
100.512564071       4.16346152262e-06
101.012626578       3.07845270069e-06
101.512689086       2.2674154543e-06
102.012751594       1.66360128606e-06
102.512814102       1.21586634273e-06
103.01287661       8.85196844643e-07
103.512939117       6.41963539382e-07
104.013001625       4.63763397919e-07
104.513064133       3.3373161569e-07
105.013126641       2.39228125027e-07
105.513189149       1.70820664138e-07
106.013251656       1.21501373979e-07
106.513314164       8.60862843377e-08
107.013376672       6.07572566148e-08
107.51343918       4.27142960872e-08
108.013501688       2.99129212315e-08
108.513564196       2.08667394064e-08
109.013626703       1.44997514669e-08
109.513689211       1.00363865363e-08
110.013751719       6.92001733014e-09
110.513814227       4.75286538799e-09
111.013876735       3.2518905414e-09
111.513939242       2.21656605515e-09
112.01400175       1.50544887432e-09
112.514064258       1.01922729354e-09
113.014126766       6.88517732281e-10
113.514189274       4.65129444522e-10
114.014251781       3.15853743029e-10
114.514314289       2.18088644051e-10
115.014376797       1.56801198277e-10
115.514439305       1.22474289275e-10
116.014501813       1.09795114507e-10
116.514564321       1.16929162993e-10
117.014626828       1.45294724269e-10
117.514689336       1.99816116363e-10
118.014751844       2.89695666998e-10
118.514814352       4.2981181272e-10
119.01487686       6.42930913587e-10
119.514939367       9.63022218162e-10
120.015001875       1.44009959074e-09
120.515064383       2.14719379427e-09
121.015126891       3.19030298578e-09
121.515189399       4.72249965122e-09
122.015251906       6.9638194995e-09
122.515314414       1.02291608847e-08
123.015376922       1.49672326599e-08
123.51543943       2.18146690243e-08
124.015501938       3.16708650908e-08
124.515564446       4.58009821988e-08
125.015626953       6.59770606064e-08
125.515689461       9.46704256807e-08
126.015751969       1.35312788746e-07
126.515814477       1.92648879583e-07
127.015876985       2.73210414186e-07
127.515939492       3.85950073076e-07
128.016002       5.43085389771e-07
128.516064508       7.61216555133e-07
129.016127016       1.06279974976e-06
129.516189524       1.47807943709e-06
130.016252032       2.04760989636e-06
130.516314539       2.82552905551e-06
131.016377047       3.88378739877e-06
131.516439555       5.31758244464e-06
132.016502063       7.2523061415e-06
132.516564571       9.85237964593e-06
133.016627078       1.33324284293e-05
133.516689586       1.79713414874e-05
134.016752094       2.41298623941e-05
134.516814602       3.22724775129e-05
135.01687711       4.29944978938e-05
135.516939617       5.70553756433e-05
136.017002125       7.54194515003e-05
136.517064633       9.93054955994e-05
137.017127141       0.000130246574374
137.517189649       0.000170161948215
138.017252157       0.00022144287015
138.517314664       0.000287054306876
139.017377172       0.000370654729291
139.51743968       0.000476736207499
140.017502188       0.000610787079929
140.517564696       0.00077947943069
141.017627203       0.00099088348428
141.517689711       0.00125471079158
142.017752219       0.0015825877139
142.517814727       0.00198836019043
143.017877235       0.0024884300776
143.517939742       0.00310212245678
144.01800225       0.00385208220327
144.518064758       0.00476469678382
145.018127266       0.00587054069702
145.518189774       0.0072048351961
146.018252282       0.00880791495102
146.518314789       0.0107256911455
147.018377297       0.0130100982051
147.518439805       0.0157195089757
148.018502313       0.0189191007849
148.518564821       0.0226811525268
149.018627328       0.0270852507996
149.518689836       0.0322183813417
150.018752344       0.038174880665
150.518814852       0.045056222034
151.01887736       0.0529706099198
151.518939867       0.0620323579113
152.019002375       0.0723610269281
152.519064883       0.0840803035563
153.019127391       0.0973166025084
153.519189899       0.112197382641
154.019252407       0.128849172652
154.519314914       0.147395310487
155.019377422       0.167953409478
155.51943993       0.190632574194
156.019502438       0.21553039965
156.519564946       0.242729798552
157.019627453       0.272295712412
157.519689961       0.304271773145
158.019752469       0.3386769917
158.519814977       0.375502559056
159.019877485       0.414708851812
159.519939992       0.45622273943
160.0200025       0.499935292254
160.520065008       0.545699988589
161.020127516       0.593331514931
161.520190024       0.642605245806
162.020252532       0.693257478506
162.520315039       0.744986483412
163.020377547       0.797454412763
163.520440055       0.850290090077
164.020502563       0.903092679476
164.520565071       0.955436209552
165.020627578       1.00687490094
165.520690086       1.05694922125
166.020752594       1.10519256654
166.520815102       1.15113844561
167.02087761       1.19432802366
167.520940118       1.23431786553
168.021002625       1.27068770657
168.521065133       1.30304807274
169.021127641       1.33104756957
169.521190149       1.35437966409
170.021252657       1.37278879369
170.521315164       1.38607565087
171.021377672       1.39410151369
171.52144018       1.3967915158
172.021502688       1.3941367786
172.521565196       1.38619535854
173.021627703       1.37309199469
173.521690211       1.3550166742
174.021752719       1.33222206422
174.521815227       1.30501988869
175.021877735       1.27377635379
175.521940243       1.23890674825
176.02200275       1.20086936145
176.522065258       1.16015887406
177.022127766       1.11729938166
177.522190274       1.07283721219
178.022252782       1.02733369232
178.522315289       0.981358007358
179.022377797       0.935480284101
179.522440305       0.890265007053
180.022502813       0.846264856928
180.522565321       0.804015036889
181.022627828       0.764028128105
181.522690336       0.726789492845
182.022752844       0.692753221517
182.522815352       0.662338600853
183.02287786       0.635927064608
183.522940368       0.613859576322
184.023002875       0.596434386376
184.523065383       0.583905102925
185.023127891       0.576479018346
185.523190399       0.574315639331
186.023252907       0.577525379229
186.523315414       0.586168385084
187.023377922       0.600253488118
187.52344043       0.619737284337
188.023502938       0.644523370327
188.523565446       0.674461777179
189.023627953       0.709348661704
189.523690461       0.748926327637
190.023752969       0.792883659542
190.523815477       0.840857057767
191.023877985       0.892431963536
191.523940493       0.947145058711
192.024003       1.00448721482
192.524065508       1.06390725073
193.024128016       1.12481653822
193.524190524       1.18659447054
194.024253032       1.24859478094
194.524315539       1.31015266863
195.024378047       1.37059265793
195.524440555       1.42923708561
196.024503063       1.48541508175
196.524565571       1.53847188287
197.024628079       1.58777829328
197.524690586       1.63274009323
198.024753094       1.67280718125
198.524815602       1.70748223348
199.02487811       1.73632866568
199.524940618       1.75897769375
200.025003125       1.77513430609
200.525065633       1.78458198531
201.025128141       1.78718604685
201.525190649       1.78289549745
202.025253157       1.77174335498
202.525315664       1.75384541279
203.025378172       1.72939747345
203.52544068       1.69867111851
204.025503188       1.66200812007
204.525565696       1.61981363592
205.025628204       1.57254836074
205.525690711       1.52071983142
206.025753219       1.46487310286
206.525815727       1.40558102242
207.025878235       1.34343433513
207.525940743       1.27903184891
208.02600325       1.21297087901
208.526065758       1.14583817463
209.026128266       1.07820150892
209.526190774       1.01060208727
210.026253282       0.943547899338
210.526315789       0.877508108132
211.026378297       0.812908537094
211.526440805       0.750128283081
212.026503313       0.689497452139
212.526565821       0.631295985757
213.026628329       0.575753519298
213.526690836       0.523050192083
214.026753344       0.473318310476
214.526815852       0.426644751691
215.02687836       0.383073986889
215.526940868       0.342611597475
216.027003375       0.305228157901
216.527065883       0.2708633616
217.027128391       0.239430273158
217.527190899       0.210819599176
218.027253407       0.184903881675
218.527315914       0.161541530876
219.027378422       0.140580628066
219.52744093       0.121862443542
220.027503438       0.105224628714
220.527565946       0.0905040549724
221.027628454       0.077539284509
221.527690961       0.0661726695728
222.027753469       0.0562520865568
222.527815977       0.0476323196084
223.027878485       0.040176115175
223.527940993       0.0337549339986
224.0280035       0.0282494306631
224.528066008       0.0235496929684
225.028128516       0.0195552743186
225.528191024       0.0161750521316
226.028253532       0.0133269441836
226.52831604       0.0109375129874
227.028378547       0.00894148593612
227.528441055       0.00728121620532
228.028503563       0.00590610643681
228.528566071       0.0047720141725
229.028628579       0.00384065497009
229.528691086       0.00307901621253
230.028753594       0.00245879188787
230.528816102       0.00195584611672
231.02887861       0.00154971097507
231.528941118       0.00122312221646
232.029003625       0.000961594844588
232.529066133       0.000753039117142
233.029128641       0.000587416459597
233.529191149       0.000456433911504
234.029253657       0.000353275092631
234.529316165       0.000272365234024
235.029378672       0.000209167541696
235.52944118       0.000160008020164
236.029503688       0.000121925853442
236.529566196       9.25464980472e-05
237.029628704       6.99747647482e-05
237.529691211       5.27053343724e-05
238.029753719       3.95483522901e-05
238.529816227       2.956796318e-05
239.029878735       2.2031872124e-05
239.529941243       1.63702421787e-05
240.03000375       1.21424567697e-05
240.530066258       9.01048402554e-06
241.030128766       6.7177777131e-06
241.530191274       5.07283554957e-06
242.030253782       3.93671149919e-06
242.53031629       3.21394667186e-06
243.030378797       2.84654725449e-06
243.530441305       2.81080236881e-06
244.030503813       3.11690594069e-06
244.530566321       3.81153202707e-06
245.030628829       4.983721544e-06
245.530691336       6.77468069506e-06
246.030753844       9.39238036562e-06
246.530816352       1.31321964247e-05
247.03087886       1.84052610561e-05
247.530941368       2.57767257688e-05
248.031003875       3.60167918535e-05
248.531066383       5.01681716889e-05
249.031128891       6.96346363024e-05
249.531191399       9.62965167818e-05
250.031253907       0.00013266049922
250.531316415       0.000182052828033
251.031378922       0.000248867156641
251.53144143       0.000338880805127
252.031503938       0.000459656148837
252.531566446       0.00062104731465
253.031628954       0.000835836341725
