#  x                 y             frequency           intensity
0.0       3.51634300187e-05       37.67       2.28045
0.500062507813       4.71223644003e-05       44.84       1.46232
1.00012501563       6.29035276359e-05       59.99       0.17946
1.50018752344       8.36441410372e-05       65.49       0.43390
2.00025003125       0.000110792199541       165.58       0.29184
2.50031253907       0.000146182890906       184.62       0.69530
3.00037504688       0.000192131339734       264.24       15.87211
3.50043755469       0.000251544492273       293.64       7.40271
4.00050006251       0.000328055270473       314.01       10.95739
4.50056257032       0.000426182426123       337.52       98.37704
5.00062507813       0.000551519803305       351.89       10.05338
5.50068758595       0.000710958951632       392.62       4.58723
6.00075009376       0.000912949201761       423.67       1.00651
6.50081260158       0.00116779939313       432.21       6.63721
7.00087510939       0.00148802540245       493.52       11.19262
7.5009376172       0.00188874742837       527.69       16.92345
8.00100012502       0.00238814060767       558.05       7.60447
8.50106263283       0.0030079419358       588.93       92.92888
9.00112514064       0.00377401560205       629.85       33.90375
9.50118764846       0.00471697769338       659.67       0.61599
10.0012501563       0.00587287973706       723.84       9.49190
10.5013126641       0.00728394871709       751.55       14.96166
11.0013751719       0.00899937899296       794.52       35.01855
11.5014376797       0.0110761689664       818.23       27.92484
12.0015001875       0.0135799923898       833.49       137.43823
12.5015626953       0.0165860909134       846.46       58.24424
13.0016252032       0.0201801708726       860.82       35.68484
13.501687711       0.0244592834887       882.46       17.85526
14.0017502188       0.0295326636887       895.52       17.43092
14.5018127266       0.035522498758       939.42       0.45723
15.0018752344       0.0425645941678       956.93       1.60156
15.5019377422       0.0508089003311       1011.99       30.87123
16.00200025       0.0604198609306       1035.46       0.59559
16.5020627578       0.0715765410202       1089.72       107.73483
17.0021252657       0.0844724915642       1119.35       31.32546
17.5021877735       0.0993153066415       1142.66       99.07711
18.0022502813       0.116325830436       1188.31       192.94499
18.5023127891       0.135736973537       1198.97       5.39543
19.0023752969       0.157792102184       1199.87       39.51194
19.5024378047       0.182742969968       1234.12       0.74023
20.0025003125       0.210847169314       1259.60       37.74409
20.5025628204       0.242365089746       1288.55       105.60727
21.0026253282       0.277556381426       1303.95       1.05053
21.502687836       0.316675935677       1342.79       1.35073
22.0027503438       0.359969408789       1349.46       49.38652
22.5028128516       0.407668331193       1360.72       6.97429
23.0028753594       0.459984860523       1367.10       23.91554
23.5029378672       0.517106253752       1424.71       17.83845
24.003000375       0.579189149954       1474.27       20.63619
24.5030628829       0.646353770594       1491.54       6.12536
25.0031253907       0.718678158084       1550.92       104.32472
25.5031878985       0.796192584911       1634.10       12.06291
26.0032504063       0.878874274389       1653.60       26.29794
26.5033129141       0.966642579388       1658.62       47.03108
27.0033754219       1.05935476686       1814.86       320.98913
27.5034379297       1.15680255306       3034.02       20.17175
28.0035004376       1.2587095271       3067.97       0.99790
28.5035629454       1.36472958824       3085.30       19.25721
29.0036254532       1.47444650616       3151.64       16.23187
29.503687961       1.58737469215       3166.98       11.87620
30.0037504688       1.70296124503       3170.63       7.17490
30.5038129766       1.82058930713       3196.37       4.43904
31.0038754844       1.93958273577       3488.49       0.80654
31.5039379922       2.05921206325       3568.24       7.85928
32.0040005001       2.17870168584       3727.00       74.23232
32.5040630079       2.29723819016       3799.18       68.24255
33.0041255157       2.41397969407
33.5041880235       2.52806605132
34.0042505313       2.63862974398
34.5043130391       2.74480726599
35.0043755469       2.84575078561
35.5044380548       2.94063986435
36.0045005626       3.02869300521
36.5045630704       3.10917880506
37.0046255782       3.18142649309
37.504688086       3.24483565009
38.0047505938       3.29888492158
38.5048131016       3.34313955997
39.0048756095       3.37725765717
39.5049381173       3.40099495799
40.0050006251       3.41420817531
40.5050631329       3.41685675993
41.0051256407       3.40900310995
41.5051881485       3.39081123534
42.0052506563       3.36254392328
42.5053131641       3.32455847697
43.005375672       3.27730112536
43.5054381798       3.22130022291
44.0055006876       3.15715837639
44.5055631954       3.08554365052
45.0056257032       3.00718001514
45.505688211       2.92283720401
46.0057507188       2.8333201593
46.5058132267       2.73945823683
47.0058757345       2.64209434461
47.5059382423       2.54207418258
48.0060007501       2.44023574389
48.5060632579       2.33739922879
49.0061257657       2.23435751044
49.5061882735       2.13186727945
50.0062507813       2.03064097895
50.5063132892       1.9313396271
51.006375797       1.83456660712
51.5064383048       1.74086248804
52.0065008126       1.65070092178
52.5065633204       1.56448564444
53.0066258282       1.48254859198
53.506688336       1.40514912271
54.0067508439       1.33247432241
54.5068133517       1.26464035099
55.0068758595       1.2016947746
55.5069383673       1.14361981266
56.0070008751       1.09033641649
56.5070633829       1.04170908498
57.0071258907       0.99755131316
57.5071883985       0.957631562173
58.0072509064       0.92167963356
58.5073134142       0.889393327438
59.007375922       0.860445263066
59.5074384298       0.834489741281
60.0075009376       0.81116953151
60.5075634454       0.790122471287
61.0076259532       0.770987773411
61.5076884611       0.753411944823
62.0077509689       0.737054231826
62.5078134767       0.721591518139
63.0078759845       0.70672261524
63.5079384923       0.692171898236
64.0080010001       0.677692254768
64.5080635079       0.663067328995
65.0081260158       0.648113057087
65.5081885236       0.632678504696
66.0082510314       0.616646030196
66.5083135392       0.599930809881
67.008376047       0.582479772439
67.5084385548       0.564269999772
68.0085010626       0.545306659335
68.5085635704       0.525620539484
69.0086260783       0.505265263838
69.5086885861       0.484314263162
70.0087510939       0.462857583994
70.5088136017       0.440998611932
71.0088761095       0.418850784577
71.5089386173       0.396534364476
72.0090011251       0.374173336378
72.509063633       0.351892485862
73.0091261408       0.329814708163
73.5091886486       0.308058587137
74.0092511564       0.286736274949
74.5093136642       0.265951693624
75.009376172       0.245799070278
75.5094386798       0.226361808868
76.0095011876       0.207711693018
76.5095636955       0.189908406914
77.0096262033       0.172999354714
77.5096887111       0.157019753442
78.0097512189       0.141992969992
78.5098137267       0.127931069734
79.0098762345       0.114835542239
79.5099387423       0.102698168795
80.0100012502       0.0915019965921
80.510063758       0.0812223855969
81.0101262658       0.0718280961064
81.5101887736       0.0632823875791
82.0102512814       0.0555441025036
82.5103137892       0.0485687125679
83.010376297       0.0423093081239
83.5104388049       0.0367175157473
84.0105013127       0.0317443324494
84.5105638205       0.027340868697
85.0106263283       0.023458995746
85.5106888361       0.0200518958194
86.0107513439       0.0170745163193
86.5108138517       0.0144839315117
87.0108763595       0.0122396169579
87.5109388674       0.0103036433833
88.0110013752       0.00864079769425
88.511063883       0.00721863950226
89.0111263908       0.00600750182425
89.5111888986       0.00498044465113
90.0112514064       0.00411316984598
90.5113139142       0.00338390540687
91.0113764221       0.00277326654685
91.5114389299       0.00226410035205
92.0115014377       0.00184132001687
92.5115639455       0.00149173386013
93.0116264533       0.00120387352728
93.5116889611       0.000967825007311
94.0117514689       0.000775065359034
94.5118139767       0.000618307364453
95.0118764846       0.000491353717175
95.5119389924       0.000388961817581
96.0120015002       0.000306719785549
96.512064008       0.00024093391546
97.0121265158       0.000188527483761
97.5121890236       0.00014695057161
98.0122515314       0.000114100377832
98.5123140393       8.82513636854e-05
99.0123765471       6.79944833956e-05
99.5124390549       5.21847058309e-05
100.012501563       3.98960159809e-05
100.512564071       3.03830935476e-05
101.012626578       2.30488939968e-05
101.512689086       1.74173996034e-05
102.012751594       1.31108598407e-05
102.512814102       9.8308981029e-06
103.01287661       7.34292213012e-06
103.512939117       5.46333616261e-06
104.013001625       4.04911191955e-06
104.513064133       2.98933161521e-06
105.013126641       2.19836846215e-06
105.513189149       1.61041789758e-06
106.013251656       1.17513582769e-06
106.513314164       8.54178461138e-07
107.013376672       6.1847191697e-07
107.51343918       4.46068981066e-07
108.013501688       3.20475472112e-07
108.513564196       2.29350029596e-07
109.013626703       1.6349914485e-07
109.513689211       1.1610431365e-07
110.013751719       8.21306759944e-08
110.513814227       5.78767829221e-08
111.013876735       4.06335203678e-08
111.513939242       2.84270223077e-08
112.01400175       1.98258824925e-08
112.514064258       1.37973554878e-08
113.014126766       9.60072164833e-09
113.514189274       6.70874620706e-09
114.014251781       4.75033292858e-09
114.514314289       3.46917790012e-09
115.014376797       2.69456941348e-09
115.514439305       2.32153930277e-09
116.014501813       2.2984197036e-09
116.514564321       2.62055633716e-09
117.014626828       3.32952628107e-09
117.514689336       4.51775026092e-09
118.014751844       6.33891891882e-09
118.514814352       9.02521029818e-09
119.01487686       1.2912903969e-08
119.514939367       1.8478741014e-08
120.015001875       2.63902889983e-08
120.515064383       3.75747050019e-08
121.015126891       5.33117153451e-08
121.515189399       7.53584271521e-08
122.015251906       1.06115847661e-07
122.515314414       1.488498215e-07
123.015376922       2.0798263115e-07
123.51543943       2.89475887855e-07
124.015501938       4.01330735995e-07
124.515564446       5.54237990026e-07
125.015626953       7.62418825446e-07
125.515689461       1.04470627592e-06
126.015751969       1.42592928153e-06
126.515814477       1.93867462607e-06
127.015876985       2.62551802726e-06
127.515939492       3.54183411418e-06
128.016002       4.75931621761e-06
128.516064508       6.37036092466e-06
129.016127016       8.49349923704e-06
129.516189524       1.12800858299e-05
130.016252032       1.49224900844e-05
130.516314539       1.96640668129e-05
131.016377047       2.58112202177e-05
131.516439555       3.37479106348e-05
132.016502063       4.39529886874e-05
132.516564571       5.70207739058e-05
133.016627078       7.36853225168e-05
133.516689586       9.48488494001e-05
134.016752094       0.000121614779094
134.516814602       0.00015532589671
135.01687711       0.000197608047793
135.516939617       0.000250419792217
136.017002125       0.000316108346708
136.517064633       0.000397472048846
137.017127141       0.000497829438004
137.517189649       0.000621094871413
138.017252157       0.000771860372975
138.517314664       0.000955483146021
139.017377172       0.00117817786786
139.51743968       0.00144711252423
140.017502188       0.00177050613868
140.517564696       0.00215772631061
141.017627203       0.00261938400487
141.517689711       0.00316742254712
142.017752219       0.00381519728724
142.517814727       0.00457754191755
143.017877235       0.00547081699468
143.517939742       0.00651293583936
144.01800225       0.00772336270509
144.518064758       0.00912307794477
145.018127266       0.0107345048933
145.518189774       0.0125813933566
146.018252282       0.0146886549785
146.518314789       0.0170821463759
147.018377297       0.0197883968047
147.518439805       0.0228342782568
148.018502313       0.0262466173035
148.518564821       0.0300517496672
149.018627328       0.0342750204246
149.518689836       0.0389402348669
150.018752344       0.0440690673308
150.518814852       0.0496804377009
151.01887736       0.055789867699
151.518939867       0.0624088314262
152.019002375       0.0695441168166
152.519064883       0.0771972165919
153.019127391       0.0853637688666
153.519189899       0.0940330686337
154.019252407       0.10318767187
154.519314914       0.11280311383
155.019377422       0.122847762202
155.51943993       0.133282824076
156.019502438       0.144062523184
156.519564946       0.155134460467
157.019627453       0.16644016694
157.519689961       0.17791585291
158.019752469       0.189493352141
158.519814977       0.201101253568
159.019877485       0.212666206859
159.519939992       0.224114381671
160.0200025       0.235373054095
160.520065008       0.2463722877
161.020127516       0.257046671058
161.520190024       0.267337068822
162.020252532       0.277192339666
162.520315039       0.28657097169
163.020377547       0.295442584638
163.520440055       0.303789248409
164.020502563       0.311606569036
164.520565071       0.318904496663
165.020627578       0.325707814881
165.520690086       0.332056277233
166.020752594       0.33800436448
166.520815102       0.343620645293
167.02087761       0.348986733071
167.520940118       0.354195842441
168.021002625       0.359350960288
168.521065133       0.364562657627
169.021127641       0.369946579918
169.521190149       0.375620664192
170.021252657       0.381702141239
170.521315164       0.388304389847
171.021377672       0.395533717273
171.52144018       0.403486145573
172.021502688       0.412244286861
172.521565196       0.421874391792
173.021627703       0.432423654506
173.521690211       0.443917853795
174.021752719       0.456359404444
174.521815227       0.469725884531
175.021877735       0.483969094191
175.521940243       0.499014689109
176.02200275       0.514762418134
176.522065258       0.531086979189
177.022127766       0.547839491623
177.522190274       0.564849566557
178.022252782       0.581927940365
178.522315289       0.598869620404
179.022377797       0.615457477268
179.522440305       0.63146620443
180.022502813       0.646666554761
180.522565321       0.660829754418
181.022627828       0.67373198835
181.522690336       0.685158848356
182.022752844       0.694909634529
182.522815352       0.702801403986
183.02287786       0.708672666985
183.522940368       0.712386639747
184.023002875       0.713833975235
184.523065383       0.712934907367
185.023127891       0.709640760317
185.523190399       0.703934792069
186.023252907       0.695832359644
186.523315414       0.68538041194
187.023377922       0.672656334111
187.52344043       0.657766184445
188.023502938       0.640842380155
188.523565446       0.62204090186
189.023627953       0.601538097499
189.523690461       0.579527174603
190.023752969       0.556214475104
190.523815477       0.531815629084
191.023877985       0.506551683104
191.523940493       0.480645295151
192.024003       0.454317082046
192.524065508       0.42778219662
193.024128016       0.401247201685
193.524190524       0.374907295935
194.024253032       0.348943934235
194.524315539       0.323522871476
195.024378047       0.298792645974
195.524440555       0.274883505562
196.024503063       0.251906767619
196.524565571       0.229954593431
197.024628079       0.209100148008
197.524690586       0.189398108702
198.024753094       0.17088548009
198.524815602       0.153582668374
199.02487811       0.137494766226
199.524940618       0.122612998268
200.025003125       0.108916278276
200.525065633       0.0963728313603
201.025128141       0.0849418377753
201.525190649       0.0745750592433
202.025253157       0.0652184136341
202.525315664       0.0568134691921
203.025378172       0.0492988350739
203.52544068       0.0426114305178
204.025503188       0.0366876203423
204.525565696       0.031464209504
205.025628204       0.0268792940268
205.525690711       0.0228729696399
206.025753219       0.0193879028983
206.525815727       0.016369772356
207.025878235       0.0137675895387
207.525940743       0.011533911028
208.02600325       0.00962495397443
208.526065758       0.00800062784674
209.026128266       0.00662449527382
209.526190774       0.00546367450668
210.026253282       0.00448869539644
210.526315789       0.00367331992082
211.026378297       0.00299433726252
211.526440805       0.002431342311
212.026503313       0.00196650527773
212.526565821       0.00158433893131
213.026628329       0.00127146881126
213.526690836       0.00101641069656
214.026753344       0.000809358611516
214.526815852       0.00064198575948
215.02687836       0.000507259995787
215.526940868       0.000399274786116
216.027003375       0.000313096045694
216.527065883       0.000244624813243
217.027128391       0.000190475374987
217.527190899       0.00014786820985
218.027253407       0.000114536968581
218.527315914       8.86486178206e-05
219.027378422       6.87358668882e-05
219.52744093       5.36410431042e-05
220.027503438       4.24706849734e-05
220.527565946       3.45602775374e-05
221.027628454       2.94487586082e-05
221.527690961       2.68626784206e-05
222.027753469       2.67102006536e-05
222.527815977       2.90854940623e-05
223.027878485       3.42844875011e-05
223.527940993       4.28334551694e-05
224.0280035       5.55324734485e-05
224.528066008       7.35164570114e-05
225.028128516       9.83372521643e-05
225.528191024       0.000132071152088
226.028253532       0.000177457213709
226.52831604       0.000238072909822
227.028378547       0.000318554950452
227.528441055       0.000424874557941
228.028503563       0.00056467807826
228.528566071       0.000747705546515
229.028628579       0.000986301676824
229.528691086       0.00129603568276
230.028753594       0.00169644830603
230.528816102       0.00221194637217
231.02887861       0.00287286701585
231.528941118       0.00371673531723
232.029003625       0.00478974033005
232.529066133       0.00614845520498
233.029128641       0.0078618271338
233.529191149       0.0100134619546
234.029253657       0.0127042262374
234.529316165       0.0160551862711
235.029378672       0.020210898343
235.52944118       0.0253430577952
236.029503688       0.0316545053217
236.529566196       0.0393835776255
237.029628704       0.0488087757426
237.529691211       0.0602537079476
238.029753719       0.0740922452051
238.529816227       0.0907538057116
239.029878735       0.11072866144
239.529941243       0.134573134142
240.03000375       0.162914521559
240.530066258       0.196455567374
241.030128766       0.235978261665
241.530191274       0.28234673343
242.030253782       0.336508974406
242.53031629       0.399497115404
243.030378797       0.472425964302
243.530441305       0.556489510224
244.030503813       0.652955103046
244.530566321       0.763155032689
245.030628829       0.888475260026
245.530691336       1.03034109196
246.030753844       1.19019964784
246.530816352       1.36949903353
247.03087886       1.56966422237
247.530941368       1.79206973901
248.031003875       2.0380093499
248.531066383       2.30866308196
249.031128891       2.60506201502
249.531191399       2.92805142017
250.031253907       3.27825294148
250.531316415       3.65602663705
251.031378922       4.06143380216
251.53144143       4.49420158723
252.031503938       4.95369048997
