#  x                 y             frequency           intensity
0.0       0.000942344385336       32.38       3.31299
0.500062507813       0.00121322507934       40.18       7.30223
1.00012501563       0.00155603437174       68.05       0.88490
1.50018752344       0.00198813380741       94.91       2.44142
2.00025003125       0.0025305990208       161.78       1.13071
2.50031253907       0.00320889267659       207.81       37.67872
3.00037504688       0.00405363054145       252.09       3.15761
3.50043755469       0.00510144717187       309.32       3.01770
4.00050006251       0.00639596670013       315.34       10.52079
4.50056257032       0.00798888279239       323.84       2.30678
5.00062507813       0.00994114999197       349.23       98.32695
5.50068758595       0.0123242863077       391.52       10.05161
6.00075009376       0.0152217840316       423.16       2.11665
6.50081260158       0.0187306223547       432.39       7.56488
7.00087510939       0.0229628713963       474.98       0.68862
7.5009376172       0.0280473727877       518.67       138.49206
8.00100012502       0.0341314770068       529.05       13.48779
8.50106263283       0.0413828123042       562.17       5.14866
9.00112514064       0.0499910544056       650.25       7.55866
9.50118764846       0.060169660336       659.82       0.52223
10.0012501563       0.0721575238443       727.02       1.02345
10.5013126641       0.0862205042028       744.65       5.30788
11.0013751719       0.102652774808       792.13       30.45661
11.5014376797       0.121777933245       801.60       39.26607
12.0015001875       0.143949810537       824.19       42.48472
12.5015626953       0.16955291442       827.57       150.85018
13.0016252032       0.199002439872       852.21       32.43771
13.501687711       0.232743780072       867.94       15.22486
14.0017502188       0.27125147254       941.19       0.18944
14.5018127266       0.315027518723       965.81       0.50470
15.0018752344       0.364599020684       976.50       1.13907
15.5019377422       0.420515086062       1011.51       12.22678
16.00200025       0.483342961883       1035.38       0.34797
16.5020627578       0.553663369255       1126.84       30.31743
17.0021252657       0.632065024197       1145.26       39.66865
17.5021877735       0.719138344633       1173.41       11.12981
18.0022502813       0.815468359789       1182.42       41.52229
18.5023127891       0.921626855403       1193.60       148.76603
19.0023752969       1.03816380602       1201.00       1.70271
19.5024378047       1.16559816387       1229.23       5.33167
20.0025003125       1.30440809181       1236.26       0.45315
20.5025628204       1.45502074569       1293.08       91.12250
21.0026253282       1.61780172794       1304.07       187.52520
21.502687836       1.79304435023       1319.45       21.77485
22.0027503438       1.98095885686       1343.98       18.63449
22.5028128516       2.18166177331       1360.30       2.81450
23.0028753594       2.39516555474       1370.32       32.12735
23.5029378672       2.62136871776       1427.12       30.74247
24.003000375       2.86004664514       1473.78       14.13400
24.5030628829       3.11084325679       1489.53       4.75763
25.0031253907       3.37326374236       1551.86       105.46169
25.5031878985       3.64666854913       1631.41       12.44473
26.0032504063       3.93026881585       1639.43       83.25495
26.5033129141       4.22312343612       1658.72       48.15895
27.0033754219       4.52413792568       1833.51       299.81750
27.5034379297       4.83206525495       2990.22       30.75367
28.0035004376       5.14550879167       3026.01       30.54896
28.5035629454       5.46292747809       3077.86       12.86044
29.0036254532       5.78264334245       3157.23       16.63552
29.503687961       6.10285141544       3161.19       6.18928
30.0037504688       6.42163208808       3179.10       5.98116
30.5038129766       6.73696590909       3197.75       3.20839
31.0038754844       7.04675077609       3494.07       12.79160
31.5039379922       7.34882142723       3580.72       12.09790
32.0040005001       7.64097108808       3721.75       106.76992
32.5040630079       7.92097507392       3797.52       73.01091
33.0041255157       8.18661609114
33.5041880235       8.4357109244
34.0042505313       8.66613814073
34.5043130391       8.87586638961
35.0043755469       9.06298283097
35.5044380548       9.2257211844
36.0045005626       9.36248886297
36.5045630704       9.47189263814
37.0046255782       9.55276227812
37.504688086       9.60417161368
38.0047505938       9.6254565126
38.5048131016       9.61622928795
39.0048756095       9.57638912547
39.5049381173       9.50612819028
40.0050006251       9.40593316264
40.5050631329       9.27658205204
41.0051256407       9.1191362481
41.5051881485       8.93492788068
42.0052506563       8.72554267643
42.5053131641       8.49279861244
43.005375672       8.23872077378
43.5054381798       7.96551291784
44.0055006876       7.6755263313
44.5055631954       7.37122663102
45.0056257032       7.0551592072
45.505688211       6.72991403325
46.0057507188       6.39809057128
46.5058132267       6.06226348534
47.0058757345       5.72494983709
47.5059382423       5.38857838183
48.0060007501       5.05546151009
48.5060632579       4.72777029296
49.0061257657       4.40751299271
49.5061882735       4.09651729685
50.0062507813       3.79641642777
50.5063132892       3.50863917535
51.006375797       3.23440380008
51.5064383048       2.97471566193
52.0065008126       2.73036834908
52.5065633204       2.50194801211
53.0066258282       2.28984055503
53.506688336       2.09424129594
54.0067508439       1.91516668627
54.5068133517       1.75246766934
55.0068758595       1.6058442641
55.5069383673       1.4748609777
56.0070008751       1.35896267884
56.5070633829       1.25749060026
57.0071258907       1.16969818143
57.5071883985       1.09476650852
58.0072509064       1.03181915643
58.5073134142       0.979936284487
59.007375922       0.938167881599
59.5074384298       0.905546096877
60.0075009376       0.881096626619
60.5075634454       0.863849157277
61.0076259532       0.852846886413
61.5076884611       0.847155159411
62.0077509689       0.845869269292
62.5078134767       0.848121470916
63.0078759845       0.853087259915
63.5079384923       0.859990961906
64.0080010001       0.86811066993
64.5080635079       0.876782558739
65.0081260158       0.88540459454
65.5081885236       0.893439649189
66.0082510314       0.900418019265
66.5083135392       0.905939343791
67.008376047       0.909673909958
67.5084385548       0.911363334344
68.0085010626       0.910820607929
68.5085635704       0.907929496393
69.0086260783       0.902643292699
69.5086885861       0.894982926057
70.0087510939       0.885034439835
70.5088136017       0.872945859935
71.0088761095       0.858923484177
71.5089386173       0.843227631706
72.0090011251       0.826167898762
72.509063633       0.808097973056
73.0091261408       0.789410063068
73.5091886486       0.770529000785
74.0092511564       0.751906076664
74.5093136642       0.734012664137
75.009376172       0.717333688057
75.5094386798       0.702360987543
76.0095011876       0.689586619155
76.5095636955       0.67949614188
77.0096262033       0.672561921441
77.5096887111       0.669236488651
78.0097512189       0.669945985238
78.5098137267       0.675083731212
79.0098762345       0.685003950631
79.5099387423       0.700015697552
80.0100012502       0.72037703098
80.510063758       0.746289496394
81.0101262658       0.777892981437
81.5101887736       0.815261024036
82.0102512814       0.858396661694
82.5103137892       0.907228920177
83.010376297       0.961610047362
83.5104388049       1.02131360267
84.0105013127       1.08603351347
84.5105638205       1.15538420635
85.0106263283       1.22890191254
85.5106888361       1.30604723293
86.0107513439       1.38620902846
86.5108138517       1.46870967693
87.0108763595       1.55281170721
87.5109388674       1.63772578818
88.0110013752       1.72262001194
88.511063883       1.80663037199
89.0111263908       1.88887229707
89.5111888986       1.96845306264
90.0112514064       2.04448486565
90.5113139142       2.11609831658
91.0113764221       2.18245607632
91.5114389299       2.24276634671
92.0115014377       2.29629591269
92.5115639455       2.34238243242
93.0116264533       2.38044567975
93.5116889611       2.40999746118
94.0117514689       2.43064995621
94.5118139767       2.44212226623
95.0118764846       2.44424500006
95.5119389924       2.43696277424
96.0120015002       2.42033456016
96.512064008       2.39453186739
97.0121265158       2.35983480973
97.5121890236       2.3166261573
98.0122515314       2.26538353062
98.5123140393       2.20666994057
99.0123765471       2.14112291922
99.5124390549       2.06944251928
100.012501563       1.99237848378
100.512564071       1.91071690154
101.012626578       1.82526666818
101.512689086       1.73684606614
102.012751594       1.6462697626
102.512814102       1.5543365001
103.01287661       1.46181772409
103.512939117       1.36944735459
104.013001625       1.27791286811
104.513064133       1.1878478121
105.013126641       1.099825829
105.513189149       1.01435622258
106.013251656       0.931881056749
106.513314164       0.852773737595
107.013376672       0.777338994521
107.51343918       0.705814146708
108.013501688       0.638371517042
108.513564196       0.575121837912
109.013626703       0.516118481562
109.513689211       0.461362342077
110.013751719       0.41080719605
110.513814227       0.364365374088
111.013876735       0.32191358481
111.513939242       0.283298746142
112.01400175       0.248343694704
112.514064258       0.216852661986
113.014126766       0.188616425173
113.514189274       0.163417059958
114.014251781       0.141032241921
114.514314289       0.121239061379
115.014376797       0.103817333617
115.514439305       0.0885524016187
116.014501813       0.0752374416792
116.514564321       0.063675293349
117.014626828       0.0536798440602
117.514689336       0.0450770054761
118.014751844       0.0377053232573
118.514814352       0.031416264676
119.01487686       0.0260742295543
119.514939367       0.0215563295931
120.015001875       0.017751979538
120.515064383       0.0145623410511
121.015126891       0.0118996568764
121.515189399       0.00968650911769
122.015251906       0.00785503140623
122.515314414       0.00634610060275
123.015376922       0.00510852959913
123.51543943       0.00409827888963
124.015501938       0.00327770095859
124.515564446       0.00261482825085
125.015626953       0.00208271259319
125.515689461       0.001658821442
126.015751969       0.00132449424513
126.515814477       0.00106446051292
127.015876985       0.00086641986932
127.515939492       0.000720683364923
128.016002       0.000619874640883
128.516064508       0.000558689090208
129.016127016       0.000533708926149
129.516189524       0.000543271988042
130.016252032       0.000587392146928
130.516314539       0.000667729270842
131.016377047       0.000787606829202
131.516439555       0.000952075316023
132.016502063       0.00116801971409
132.516564571       0.00144430917134
133.016627078       0.00179198688478
133.516689586       0.00222449785816
134.016752094       0.00275795169505
134.516814602       0.00341141689091
135.01687711       0.00420724218604
135.516939617       0.00517139943288
136.017002125       0.00633384112222
136.517064633       0.00772886422016
137.017127141       0.0093954703187
137.517189649       0.0113777103389
138.017252157       0.0137250001997
138.517314664       0.016492392047
139.017377172       0.0197407839031
139.51743968       0.0235370490495
140.017502188       0.0279540651848
140.517564696       0.0330706225361
141.017627203       0.0389711897471
141.517689711       0.0457455166489
142.017752219       0.0534880540467
142.517814727       0.0622971725319
143.017877235       0.0722741651365
143.517939742       0.0835220224468
144.01800225       0.0961439736114
144.518064758       0.110241792503
145.018127266       0.125913875069
145.518189774       0.143253101538
146.018252282       0.162344505449
146.518314789       0.18326278028
147.018377297       0.206069663485
147.518439805       0.23081124664
148.018502313       0.257515268983
148.518564821       0.286188459276
149.018627328       0.316813997498
149.518689836       0.349349172802
150.018752344       0.38372331722
150.518814852       0.41983609531
151.01887736       0.457556228176
151.518939867       0.496720725739
152.019002375       0.537134693749
152.519064883       0.57857177176
153.019127391       0.620775245329
153.519189899       0.663459860172
154.019252407       0.706314348365
154.519314914       0.749004657327
155.019377422       0.791177851889
155.51943993       0.83246663884
156.019502438       0.872494442735
156.519564946       0.91088094216
157.019627453       0.947247957882
157.519689961       0.981225569068
158.019752469       1.01245832173
158.519814977       1.04061138534
159.019877485       1.06537650954
159.519939992       1.0864776334
160.0200025       1.10367600514
160.520065008       1.1167746797
161.020127516       1.1256222763
161.520190024       1.13011589617
162.020252532       1.13020312243
162.520315039       1.12588304874
163.020377547       1.11720630953
163.520440055       1.10427411217
164.020502563       1.08723629909
164.520565071       1.06628849398
165.020627578       1.0416684119
165.520690086       1.01365143444
166.020752594       0.982545571034
166.520815102       0.948685942021
167.02087761       0.912428930388
167.520940118       0.874146155575
168.021002625       0.834218424785
168.521065133       0.793029815071
169.021127641       0.750962033294
169.521190149       0.708389191369
170.021252657       0.665673121693
170.521315164       0.623159342841
171.021377672       0.581173769436
171.52144018       0.540020243159
172.021502688       0.499978944969
172.521565196       0.461305732441
173.021627703       0.424232431261
173.521690211       0.388968096824
174.021752719       0.355701250907
174.521815227       0.324603089618
175.021877735       0.295831652391
175.521940243       0.269536937342
176.02200275       0.245866945575
176.522065258       0.224974635469
177.022127766       0.207025766878
177.522190274       0.192207613763
178.022252782       0.180738521139
178.522315289       0.172878277385
179.022377797       0.168939264956
179.522440305       0.169298340436
180.022502813       0.174409377717
180.522565321       0.184816385271
181.022627828       0.201167079299
181.522690336       0.224226758842
182.022752844       0.25489228659
182.522815352       0.294205930613
183.02287786       0.343368768228
183.522940368       0.403753295049
184.023002875       0.476914821501
184.523065383       0.564601178072
185.023127891       0.668760191855
185.523190399       0.791544343682
186.023252907       0.935311970882
186.523315414       1.1026243492
187.023377922       1.29623797258
187.52344043       1.51909135568
188.023502938       1.77428571416
188.523565446       2.06505893707
189.023627953       2.39475235451
189.523690461       2.76676992713
190.023752969       3.18452964013
190.523815477       3.65140707532
191.023877985       4.1706713571
191.523940493       4.74541391936
192.024003       5.37847081511
192.524065508       6.07233958188
193.024128016       6.82909197532
193.524190524       7.650284181
194.024253032       8.53686639829
194.524315539       9.48909394818
195.024378047       10.5064422768
195.524440555       11.5875283933
196.024503063       12.7300413861
196.524565571       13.9306846881
197.024628079       15.1851327085
197.524690586       16.4880042997
198.024753094       17.8328552882
198.524815602       19.2121919596
199.02487811       20.6175069614
199.524940618       22.0393385724
200.025003125       23.4673537047
200.525065633       24.8904543594
201.025128141       26.29690658
201.525190649       27.6744902498
202.025253157       29.010667391
202.525315664       30.2927659701
203.025378172       31.5081756172
203.52544068       32.6445511539
204.025503188       33.690019419
204.525565696       34.6333845994
205.025628204       35.4643271319
205.525690711       36.1735912549
206.025753219       36.7531564513
206.525815727       37.1963883491
207.025878235       37.4981651097
207.525940743       37.6549759394
208.02600325       37.6649890744
208.526065758       37.5280873989
209.026128266       37.2458707281
209.526190774       36.8216246945
210.026253282       36.2602570831
210.526315789       35.5682033414
211.026378297       34.7533038089
211.526440805       33.8246559397
212.026503313       32.7924454134
212.526565821       31.6677605156
213.026628329       30.4623945089
213.526690836       29.1886409066
214.026753344       27.85908659
214.526815852       26.4864075909
215.02687836       25.0831720974
215.526940868       23.6616548533
216.027003375       22.2336666182
216.527065883       20.8104017733
217.027128391       19.4023065074
217.527190899       18.0189693344
218.027253407       16.6690349972
218.527315914       15.3601421282
219.027378422       14.0988843902
219.52744093       12.8907942274
220.027503438       11.7403478309
220.527565946       10.6509894862
221.027628454       9.62517311756
221.527690961       8.66441858957
222.027753469       7.76938016727
222.527815977       6.93992446688
223.027878485       6.17521524639
223.527940993       5.47380247765
224.0280035       4.83371330037
224.528066008       4.25254266887
225.028128516       3.72754175405
225.528191024       3.25570244128
226.028253532       2.83383655796
226.52831604       2.45864876107
227.028378547       2.12680230407
227.528441055       1.83497717627
228.028503563       1.57992035835
228.528566071       1.35848816098
229.028628579       1.16768080457
229.528691086       1.00466955682
230.028753594       0.866816869644
230.528816102       0.751690049678
231.02887861       0.657069059116
231.528941118       0.580949079091
232.029003625       0.521538479765
232.529066133       0.477252833822
233.029128641       0.44670558722
233.529191149       0.428695967058
234.029253657       0.422194664908
234.529316165       0.426327788676
235.029378672       0.440359529763
235.52944118       0.463673947624
236.029503688       0.495756232575
236.529566196       0.536173771177
237.029628704       0.584557307404
237.529691211       0.640582467269
238.029753719       0.703951894308
238.529816227       0.774378227502
239.029878735       0.851568140903
239.529941243       0.935207653948
240.03000375       1.02494891198
240.530066258       1.12039862605
241.030128766       1.22110834871
241.530191274       1.32656674613
242.030253782       1.43619400673
242.53031629       1.54933849999
243.030378797       1.66527576803
243.530441305       1.78320989456
244.030503813       1.90227725326
244.530566321       2.02155258979
245.030628829       2.14005734072
245.530691336       2.25677003919
246.030753844       2.37063860363
246.530816352       2.48059425357
247.03087886       2.58556674828
247.530941368       2.68450060057
248.031003875       2.77637188311
248.531066383       2.86020521796
249.031128891       2.93509052508
249.531191399       3.00019910166
250.031253907       3.05479861338
250.531316415       3.09826660033
251.031378922       3.13010213469
251.53144143       3.14993531282
252.031503938       3.15753432113
252.531566446       3.15280987923
253.031628954       3.13581693556
253.531691461       3.10675356604
254.031753969       3.06595710284
254.531816477       3.0138975966
255.031878985       2.95116878701
255.531941493       2.87847682273
256.032004001       2.79662702913
256.532066508       2.70650906937
257.032129016       2.60908087994
257.532191524       2.50535178484
258.032254032       2.39636520243
258.53231654       2.28318135557
259.032379047       2.16686038064
259.532441555       2.04844620348
260.032504063       1.92895151362
260.532566571       1.80934412264
261.032629079       1.69053494081
