#  x                 y             frequency           intensity
0.0       0.00856514289153       25.33       1.28724
0.500062507813       0.0104193563377       46.92       3.70518
1.00012501563       0.0126255555628       67.81       3.66099
1.50018752344       0.0152392457197       71.58       0.70155
2.00025003125       0.0183222945471       178.24       10.28645
2.50031253907       0.0219431877625       189.13       0.04239
3.00037504688       0.0261771953258       204.39       29.32932
3.50043755469       0.0311064264106       273.56       10.82596
4.00050006251       0.0368197498524       303.43       16.44182
4.50056257032       0.0434125563586       337.03       95.97364
5.00062507813       0.0509863390078       363.97       2.48267
5.50068758595       0.0596480696584       393.98       14.53803
6.00075009376       0.0695093509568       422.91       1.31368
6.50081260158       0.0806853267723       432.34       10.89052
7.00087510939       0.0932933381738       484.34       56.88992
7.5009376172       0.107451317537       500.88       22.79095
8.00100012502       0.123275920021       507.82       10.01901
8.50106263283       0.140880399437       554.29       28.06289
9.00112514064       0.160372244321       659.01       1.28721
9.50118764846       0.181850599698       670.01       16.68583
10.0012501563       0.20540351025       704.58       7.43285
10.5013126641       0.231105031256       741.27       1.87910
11.0013751719       0.259012264227       795.17       13.68460
11.5014376797       0.289162384377       809.55       17.33595
12.0015001875       0.321569736439       842.75       31.42363
12.5015626953       0.356223083403       853.01       22.15489
13.0016252032       0.39308309917       871.48       59.63191
13.501687711       0.432080200244       883.09       1.29590
14.0017502188       0.473112813258       913.78       11.64440
14.5018127266       0.516046173776       945.01       42.33763
15.0018752344       0.560711747309       973.40       2.59057
15.5019377422       0.606907355597       990.73       35.57385
16.00200025       0.654398079827       1035.84       0.31719
16.5020627578       0.70291799775       1118.58       3.09912
17.0021252657       0.752172793696       1126.21       33.23244
17.5021877735       0.801843259688       1150.06       18.23674
18.0022502813       0.851589682628       1159.89       2.94921
18.5023127891       0.901057087493       1190.22       191.76842
19.0023752969       0.949881280273       1199.44       6.91277
19.5024378047       0.997695607844       1234.84       0.96613
20.0025003125       1.04413832591       1263.09       103.87939
20.5025628204       1.08886044139       1288.11       108.38060
21.0026253282       1.131533873       1294.04       130.15546
21.502687836       1.17185975451       1308.53       142.22996
22.0027503438       1.20957668893       1349.51       6.16367
22.5028128516       1.24446875103       1362.62       17.78175
23.0028753594       1.27637302884       1368.02       17.10183
23.5029378672       1.30518649376       1421.70       1.98760
24.003000375       1.33087199358       1474.70       16.17690
24.5030628829       1.35346317249       1489.89       5.72491
25.0031253907       1.37306813788       1551.54       105.11678
25.5031878985       1.3898717146       1634.03       15.24463
26.0032504063       1.4041361528       1658.55       46.51427
26.5033129141       1.41620018538       1671.78       32.20129
27.0033754219       1.42647636471       1839.61       280.86156
27.5034379297       1.43544664437       3023.28       10.10418
28.0035004376       1.44365621048       3037.11       26.31043
28.5035629454       1.45170560668       3073.98       16.26227
29.0036254532       1.46024123704       3146.95       18.09188
29.503687961       1.46994437102       3163.91       16.36971
30.0037504688       1.48151881324       3189.19       4.38900
30.5038129766       1.49567743707       3205.76       3.41114
31.0038754844       1.51312781523       3477.58       5.59502
31.5039379922       1.53455721068       3552.97       7.20962
32.0040005001       1.56061721727       3769.08       31.24311
32.5040630079       1.59190836103       3799.58       64.76285
33.0041255157       1.62896498889
33.5041880235       1.67224078153
34.0042505313       1.72209523043
34.5043130391       1.7787814159
35.0043755469       1.84243541148
35.5044380548       1.91306762218
36.0045005626       1.99055633684
36.5045630704       2.07464374158
37.0046255782       2.16493459855
37.504688086       2.2608977458
38.0047505938       2.36187051766
38.5048131016       2.46706612393
39.0048756095       2.57558395949
39.5049381173       2.68642274685
40.0050006251       2.79849634253
40.5050631329       2.91065196755
41.0051256407       3.02169055333
41.5051881485       3.13038882965
42.0052506563       3.23552272339
42.5053131641       3.33589158654
43.005375672       3.43034273303
43.5054381798       3.51779573604
44.0055006876       3.5972659235
44.5055631954       3.66788651001
45.0056257032       3.72892881834
45.505688211       3.77982007425
46.0057507188       3.82015830297
46.5058132267       3.84972391463
47.0058757345       3.86848763646
47.5059382423       3.87661453109
48.0060007501       3.87446393
48.5060632579       3.86258520643
49.0061257657       3.84170941069
49.5061882735       3.81273688985
50.0062507813       3.77672111028
50.5063132892       3.7348489929
51.006375797       3.68841815549
51.5064383048       3.63881153028
52.0065008126       3.58746988838
52.5065633204       3.53586285247
53.0066258282       3.48545901508
53.506688336       3.43769580132
54.0067508439       3.39394972136
54.5068133517       3.35550764984
55.0068758595       3.32353974698
55.5069383673       3.29907460047
56.0070008751       3.28297711893
56.5070633829       3.27592964884
57.0071258907       3.27841671761
57.5071883985       3.29071372867
58.0072509064       3.31287985099
58.5073134142       3.34475525701
59.007375922       3.38596277186
59.5074384298       3.43591390384
60.0075009376       3.49381913424
60.5075634454       3.55870225455
61.0076259532       3.62941845363
61.5076884611       3.70467577681
62.0077509689       3.78305950734
62.5078134767       3.86305895655
63.0078759845       3.94309609715
63.5079384923       4.02155543341
64.0080010001       4.09681447506
64.5080635079       4.16727416876
65.0081260158       4.2313886433
65.5081885236       4.28769364158
66.0082510314       4.33483304519
66.5083135392       4.37158294374
67.008376047       4.39687276187
67.5084385548       4.40980302936
68.0085010626       4.40965946257
68.5085635704       4.39592311665
69.0086260783       4.36827646486
69.5086885861       4.32660536065
70.0087510939       4.27099693852
70.5088136017       4.20173360608
71.0088761095       4.11928337145
71.5089386173       4.02428683273
72.0090011251       3.91754122891
72.509063633       3.79998201073
73.0091261408       3.67266243548
73.5091886486       3.53673171976
74.0092511564       3.3934122981
74.5093136642       3.24397673412
75.009376172       3.08972481365
75.5094386798       2.931961319
76.0095011876       2.77197493977
76.5095636955       2.61101872195
77.0096262033       2.45029239489
77.5096887111       2.29092684713
78.0097512189       2.13397095095
78.5098137267       1.98038086226
79.0098762345       1.83101185154
79.5099387423       1.68661265335
80.0100012502       1.54782225971
80.510063758       1.41516902714
81.0101262658       1.28907191985
81.5101887736       1.16984367335
82.0102512814       1.05769563395
82.5103137892       0.95274401036
83.010376297       0.855017263716
83.5104388049       0.764464361016
84.0105013127       0.680963623628
84.5105638205       0.604331916064
85.0106263283       0.534333939496
85.5106888361       0.470691418224
86.0107513439       0.413091994375
86.5108138517       0.361197675161
87.0108763595       0.314652706992
87.5109388674       0.273090780504
88.0110013752       0.236141499299
88.511063883       0.203436072058
89.0111263908       0.174612212134
89.5111888986       0.149318250297
90.0112514064       0.127216484747
90.5113139142       0.107985807623
91.0113764221       0.091323659144
91.5114389299       0.0769473691687
92.0115014377       0.0645949517532
92.5115639455       0.0540254212903
93.0116264533       0.0450186995338
93.5116889611       0.0373751814793
94.0117514689       0.0309150251135
94.5118139767       0.0254772257988
95.0118764846       0.0209185308782
95.5119389924       0.0171122442822
96.0120015002       0.013946964787
96.512064008       0.0113252953425
97.0121265158       0.00916255478028
97.5121890236       0.00738551738048
98.0122515314       0.00593120034536
98.5123140393       0.00474571429229
99.0123765471       0.00378318748509
99.5124390549       0.00300477070253
100.012501563       0.00237772639425
100.512564071       0.0018746030829
101.012626578       0.00147249380135
101.512689086       0.00115237566541
102.012751594       0.000898526423604
102.512814102       0.00069801294306
103.01287661       0.00054024603094
103.512939117       0.00041659569907
104.013001625       0.000320060906578
104.513064133       0.000244987914078
105.013126641       0.00018683161205
105.513189149       0.000141954509049
106.013251656       0.000107458451183
106.513314164       8.10445669688e-05
107.013376672       6.08973703231e-05
107.51343918       4.55893924308e-05
108.013501688       3.40031381368e-05
108.513564196       2.52675651926e-05
109.013626703       1.87066590853e-05
109.513689211       1.37980185755e-05
110.013751719       1.01396757167e-05
110.513814227       7.4236488153e-06
111.013876735       5.41496840965e-06
111.513939242       3.93512663009e-06
112.01400175       2.84908151068e-06
112.514064258       2.05510253732e-06
113.014126766       1.47687466499e-06
113.514189274       1.05738795781e-06
114.014251781       7.54231550572e-07
114.514314289       5.35986299105e-07
115.014376797       3.79472580193e-07
115.514439305       2.67660299173e-07
116.014501813       1.88089114872e-07
116.514564321       1.31679818333e-07
117.014626828       9.18441072895e-08
117.514689336       6.38208832932e-08
118.014751844       4.4183678911e-08
118.514814352       3.04767503081e-08
119.01487686       2.0947452966e-08
119.514939367       1.43503375006e-08
120.015001875       9.80443396e-09
120.515064383       6.68982195357e-09
121.015126891       4.57312077565e-09
121.515189399       3.15422674977e-09
122.015251906       2.22867246475e-09
122.515314414       1.66154220359e-09
123.015376922       1.37007579967e-09
123.51543943       1.31303126232e-09
124.015501938       1.48563893315e-09
124.515564446       1.9196388891e-09
125.015626953       2.68851448653e-09
125.515689461       3.91868270498e-09
126.015751969       5.8081446643e-09
126.515814477       8.65501546221e-09
127.015876985       1.28995356651e-08
127.515939492       1.91847356019e-08
128.016002       2.84430292922e-08
128.516064508       4.20188527632e-08
129.016127016       6.18412848064e-08
129.516189524       9.06657244044e-08
130.016252032       1.32410570252e-07
130.516314539       1.92623995157e-07
131.016377047       2.79128021077e-07
131.516439555       4.02903051269e-07
132.016502063       5.79296899853e-07
132.516564571       8.29669540487e-07
133.016627078       1.18361996109e-06
133.516689586       1.68198672583e-06
134.016752094       2.38087161564e-06
134.516814602       3.35700905688e-06
135.01687711       4.71489653758e-06
135.516939617       6.59621706563e-06
136.017002125       9.19222883954e-06
136.517064633       1.27599752902e-05
137.017127141       1.76433868479e-05
137.517189649       2.43006112233e-05
138.017252157       3.33392293131e-05
138.517314664       4.55613971746e-05
139.017377172       6.20214092277e-05
139.51743968       8.40987122369e-05
140.017502188       0.000113590021462
140.517564696       0.000152824906307
141.017627203       0.00020481002766
141.517689711       0.000273408124898
142.017752219       0.000363558865534
142.517814727       0.000481549777583
143.017877235       0.000635346670715
143.517939742       0.000834994195272
144.01800225       0.00109309845712
144.518064758       0.0014254048581
145.018127266       0.00185148551085
145.518189774       0.0023955516121
146.018252282       0.00308740696488
146.518314789       0.00396355931418
147.018377297       0.00506850618445
147.518439805       0.00645621134669
148.018502313       0.00819178675044
148.518564821       0.0103533925741
149.018627328       0.013034364813
149.518689836       0.0163455753782
150.018752344       0.0204180238622
150.518814852       0.0254056528182
151.01887736       0.0314883694779
151.518939867       0.0388752462578
152.019002375       0.047807860155
152.519064883       0.0585637172958
153.019127391       0.0714596936185
153.519189899       0.0868554062031
154.019252407       0.105156412476
154.519314914       0.126817116896
155.019377422       0.152343247375
155.51943993       0.182293747343
156.019502438       0.21728191488
156.519564946       0.257975608592
157.019627453       0.305096332055
157.519689961       0.359417005559
158.019752469       0.421758236826
158.519814977       0.492982912145
159.019877485       0.573988947106
159.519939992       0.665700062317
160.0200025       0.769054484933
160.520065008       0.88499152147
161.020127516       1.01443600132
161.520190024       1.15828065298
162.020252532       1.31736654515
162.520315039       1.4924618016
163.020377547       1.68423887914
163.520440055       1.89325078132
164.020502563       2.11990666169
164.520565071       2.36444734921
165.020627578       2.62692139807
165.520690086       2.90716232477
166.020752594       3.20476773986
166.520815102       3.5190811102
167.02087761       3.84917689405
167.520940118       4.19384977611
168.021002625       4.5516086882
168.521065133       4.92067623557
169.021127641       5.29899405635
169.521190149       5.68423452508
170.021252657       6.07381907217
170.521315164       6.46494323277
171.021377672       6.85460836493
171.52144018       7.23965979387
172.021502688       7.61683095148
172.521565196       7.98279289513
173.021627703       8.33420841378
173.521690211       8.66778976812
174.021752719       8.98035897289
174.521815227       9.26890941704
175.021877735       9.53066753805
175.521940243       9.76315322203
176.02200275       9.96423759465
176.522065258       10.1321968996
177.022127766       10.2657612305
177.522190274       10.3641569861
178.022252782       10.4271420541
178.522315289       10.4550328904
179.022377797       10.4487228398
179.522440305       10.4096912408
180.022502813       10.3400030516
180.522565321       10.2422989359
181.022627828       10.1197759306
181.522690336       9.97615899257
182.022752844       9.81566387213
182.522815352       9.64295188953
183.02287786       9.46307729026
183.522940368       9.28142793021
184.023002875       9.10366008844
184.523065383       8.93562822978
185.023127891       8.78331054401
185.523190399       8.65273107823
186.023252907       8.54987926114
186.523315414       8.48062759667
187.023377922       8.45064828764
187.52344043       8.46532954222
188.023502938       8.52969232183
188.523565446       8.64830831188
189.023627953       8.82521993794
189.523690461       9.0638633084
190.023752969       9.36699503928
190.523815477       9.73662400107
191.023877985       10.1739491171
191.523940493       10.6793044282
192.024003       11.2521127114
192.524065508       11.8908489904
193.024128016       12.5930152943
193.524190524       13.3551279957
194.024253032       14.1727189878
194.524315539       15.0403518273
195.024378047       15.9516537828
195.524440555       16.8993644726
196.024503063       17.8754014679
196.524565571       18.8709428691
197.024628079       19.8765264498
197.524690586       20.88216452
198.024753094       21.8774731897
198.524815602       22.8518142465
199.02487811       23.7944474067
199.524940618       24.6946902749
200.025003125       25.5420829842
200.525065633       26.3265541861
201.025128141       27.0385848532
201.525190649       27.6693662408
202.025253157       28.2109483551
202.525315664       28.6563753856
203.025378172       28.9998047833
203.52544068       29.2366070091
204.025503188       29.363443413
204.525565696       29.3783202362
205.025628204       29.2806173311
205.525690711       29.0710908504
206.025753219       28.7518498386
206.525815727       28.3263073562
207.025878235       27.7991074343
207.525940743       27.1760297935
208.02600325       26.4638748268
208.526065758       25.6703318315
209.026128266       24.8038338618
209.526190774       23.8734028504
210.026253282       22.8884888042
210.526315789       21.8588069196
211.026378297       20.7941763827
211.526440805       19.7043644294
212.026503313       18.598938948
212.526565821       17.4871325332
213.026628329       16.3777204488
213.526690836       15.2789144605
214.026753344       14.1982739727
214.526815852       13.142635356
215.02687836       12.1180598257
215.526940868       11.1297997161
216.027003375       10.1822825287
216.527065883       9.27911171895
217.027128391       8.42308282856
217.527190899       7.61621329223
218.027253407       6.85978403551
218.527315914       6.15439084657
219.027378422       5.5000034416
219.52744093       4.89603014751
220.027503438       4.34138619114
220.527565946       3.83456370149
221.027628454       3.37370169209
221.527690961       2.95665448457
222.027753469       2.58105725134
222.527815977       2.2443875856
223.027878485       1.94402224112
223.527940993       1.67728841516
224.0280035       1.44150916686
224.528066008       1.23404276639
225.028128516       1.05231595176
225.528191024       0.893851227244
226.028253532       0.756288469141
226.52831604       0.637401209128
227.028378547       0.535108044578
227.528441055       0.447479679114
228.028503563       0.372742128179
228.528566071       0.309276635535
229.028628579       0.255616840486
229.528691086       0.210443715121
230.028753594       0.172578759092
230.528816102       0.140975899236
231.02887861       0.114712495569
231.528941118       0.0929798060968
232.029003625       0.0750732128798
232.529066133       0.060382462395
233.029128641       0.0483821261516
233.529191149       0.038622443646
234.029253657       0.0307206699919
234.529316165       0.0243530153765
235.029378672       0.0192472331287
235.52944118       0.0151758876728
236.029503688       0.0119503128378
236.529566196       0.00941525463183
237.029628704       0.00744418029347
237.529691211       0.0059352267795
238.029753719       0.00480775636023
238.529816227       0.00399948419562
239.029878735       0.00346414217398
239.529941243       0.00316964444907
240.03000375       0.0030967225709
240.530066258       0.00323800146099
241.030128766       0.00359749135319
241.530191274       0.00419047485725
242.030253782       0.00504377218101
242.53031629       0.00619637097163
243.030378797       0.00770040993151
243.530441305       0.00962250707678
244.030503813       0.0120454240007
244.530566321       0.0150700565672
245.030628829       0.0188177399015
245.530691336       0.023432851202
246.030753844       0.0290856876491
246.530816352       0.035975588444
247.03087886       0.0443342597609
247.530941368       0.0544292491765
248.031003875       0.0665675020867
248.531066383       0.0810989169524
249.031128891       0.0984197992759
249.531191399       0.118976096443
250.031253907       0.143266277557
250.531316415       0.171843704859
251.031378922       0.205318327059
251.53144143       0.244357510927
252.031503938       0.289685816735
252.531566446       0.342083516812
253.031628954       0.402383655604
253.531691461       0.471467455425
254.031753969       0.550257885466
254.531816477       0.639711233634
255.031878985       0.740806551956
255.531941493       0.8545328872
256.032004001       0.981874258995
256.532066508       1.12379240785
257.032129016       1.28120740433
257.532191524       1.4549762869
