#  x                 y             frequency           rot. str.
0.0      -0.0824796275281      31.78      4.45
0.500062507813      -0.0813638429651      52.95      -28.08
1.00012501563      -0.0800993413723      59.01      4.25
1.50018752344      -0.0786732970409      65.05      16.50
2.00025003125      -0.0770717450903      178.31      -11.90
2.50031253907      -0.0752794717256      200.18      -15.09
3.00037504688      -0.0732798930309      244.72      -1.15
3.50043755469      -0.0710549210242      297.05      -6.88
4.00050006251      -0.0685848155538      338.95      29.18
4.50056257032      -0.0658480204565      341.80      11.93
5.00062507813      -0.0628209822174      359.74      2.84
5.50068758595      -0.0594779491794      421.51      19.18
6.00075009376      -0.0557907491331      425.29      8.30
6.50081260158      -0.0517285428881      435.38      -60.42
7.00087510939      -0.0472575511718      474.21      -31.83
7.5009376172      -0.0423407519367      492.60      30.52
8.00100012502      -0.0369375448687      515.54      18.46
8.50106263283      -0.0310033795997      546.72      -2.13
9.00112514064      -0.0244893438234      625.84      31.69
9.50118764846      -0.0173417072277      659.36      -0.47
10.0012501563      -0.00950141688448      710.67      -21.76
10.5013126641      -0.00090353951571      739.74      7.84
11.0013751719      0.00852335409015      787.33      13.97
11.5014376797      0.0188578672649      809.36      -164.95
12.0015001875      0.030186522843      821.10      38.99
12.5015626953      0.0426045799089      837.14      -40.88
13.0016252032      0.0562169252705      857.66      21.93
13.501687711      0.0711390416784      881.97      30.54
14.0017502188      0.0874980527239      913.13      -13.57
14.5018127266      0.105433841241      948.15      -0.41
15.0018752344      0.125100233539      955.83      -1.46
15.5019377422      0.146666235409      1020.20      -9.82
16.00200025      0.170317296951      1036.13      0.27
16.5020627578      0.196256571005      1125.32      56.32
17.0021252657      0.224706113258      1130.00      -21.06
17.5021877735      0.255907949568      1168.14      28.73
18.0022502813      0.290124905937      1186.74      -0.37
18.5023127891      0.327641056724      1199.61      2.27
19.0023752969      0.368761594472      1206.97      -16.36
19.5024378047      0.413811857181      1234.01      -17.41
20.0025003125      0.463135162519      1240.30      2.84
20.5025628204      0.517088990066      1288.34      62.70
21.0026253282      0.576038919451      1292.86      4.53
21.502687836      0.640349573036      1321.76      -22.69
22.0027503438      0.710371629202      1346.97      -10.74
22.5028128516      0.786423775169      1365.24      -27.80
23.0028753594      0.868768276454      1368.89      1.45
23.5029378672      0.957578690465      1406.71      -7.59
24.003000375      1.052898206      1469.92      -5.45
24.5030628829      1.15458724434      1477.68      -4.61
25.0031253907      1.26225944793      1551.77      6.91
25.5031878985      1.37520618832      1627.26      78.77
26.0032504063      1.49231145094      1635.20      -6.09
26.5033129141      1.61196158871      1658.96      -6.63
27.0033754219      1.73195805584      1838.74      -33.72
27.5034379297      1.84944566055      2916.34      1.22
28.0035004376      1.96087348426      3009.86      -10.12
28.5035629454      2.06200915735      3084.05      -2.27
29.0036254532      2.14802776119      3154.03      0.29
29.503687961      2.2136920074      3155.86      -0.69
30.0037504688      2.25362876515      3189.35      2.68
30.5038129766      2.26268842914      3196.48      -1.34
31.0038754844      2.2363509682      3512.92      -17.58
31.5039379922      2.1711219553      3602.22      6.90
32.0040005001      2.06485142409      3773.16      -11.00
32.5040630079      1.91691444571      3798.47      5.34
33.0041255157       1.72821601215
33.5041880235       1.50101823152
34.0042505313       1.2386238962
34.5043130391       0.944975798032
35.0043755469       0.624239127017
35.5044380548       0.280425333732
36.0045005626       -0.0829040033092
36.5045630704       -0.462837498204
37.0046255782       -0.857221803584
37.504688086       -1.26469259729
38.0047505938       -1.68464950788
38.5048131016       -2.11719550376
39.0048756095       -2.5630577644
39.5049381173       -3.02350225423
40.0050006251       -3.50024943342
40.5050631329       -3.99539443022
41.0051256407       -4.51133176178
41.5051881485       -5.05068224476
42.0052506563       -5.61621788256
42.5053131641       -6.21077903701
43.005375672       -6.83717691145
43.5054381798       -7.49807319091
44.0055006876       -8.19582760158
44.5055631954       -8.93230329488
45.0056257032       -9.7086196249
45.505688211       -10.524842578
46.0057507188       -11.3796055965
46.5058132267       -12.2696588575
47.0058757345       -13.1893544902
47.5059382423       -14.1300900106
48.0060007501       -15.0797532406
48.5060632579       -16.0222387051
49.0061257657       -16.9371351036
49.5061882735       -17.7997094694
50.0062507813       -18.5813253512
50.5063132892       -19.2504159839
51.006375797       -19.774076007
51.5064383048       -20.1202319354
52.0065008126       -20.2602137376
52.5065633204       -20.1714099418
53.0066258282       -19.8395948812
53.506688336       -19.2605153868
54.0067508439       -18.4404358381
54.5068133517       -17.3955425018
55.0068758595       -16.1503390822
55.5069383673       -14.7353511149
56.0070008751       -13.1845442172
56.5070633829       -11.5328399962
57.0071258907       -9.81401386289
57.5071883985       -8.05913082499
58.0072509064       -6.29556261964
58.5073134142       -4.54655498018
59.007375922       -2.83127675019
59.5074384298       -1.16526751448
60.0075009376       0.438810520378
60.5075634454       1.97022814446
61.0076259532       3.41918763118
61.5076884611       4.77592004115
62.0077509689       6.03004238355
62.5078134767       7.17031482545
63.0078759845       8.18488611179
63.5079384923       9.06203393395
64.0080010001       9.79130665546
64.5080635079       10.3648738906
65.0081260158       10.7788238459
65.5081885236       11.0341323466
66.0082510314       11.1370859031
66.5083135392       11.0990588313
67.008376047       10.9356880475
67.5084385548       10.6656135476
68.0085010626       10.3090215636
68.5085635704       9.88622846411
69.0086260783       9.4164895091
69.5086885861       8.917135364
70.0087510939       8.40305933005
70.5088136017       7.88651847945
71.0088761095       7.37717888374
71.5089386173       6.88232591424
72.0090011251       6.40716758736
72.509063633       5.95517408593
73.0091261408       5.52841372171
73.5091886486       5.12786099119
74.0092511564       4.75366439057
74.5093136642       4.40537005795
75.009376172       4.08210258891
75.5094386798       3.78270727101
76.0095011876       3.50585923999
76.5095636955       3.25014528192
77.0096262033       3.01412363919
77.5096887111       2.79636652837
78.0097512189       2.5954893343
78.5098137267       2.4101697175
79.0098762345       2.23915921647
79.5099387423       2.08128936569
80.0100012502       1.93547388583
80.510063758       1.80070812894
81.0101262658       1.67606666565
81.5101887736       1.56069967132
82.0102512814       1.45382859092
82.5103137892       1.35474142813
83.010376297       1.26278790269
83.5104388049       1.17737464451
84.0105013127       1.09796053742
84.5105638205       1.02405228445
85.0106263283       0.955200237161
85.5106888361       0.890994510609
86.0107513439       0.831061390651
86.5108138517       0.775060030412
87.0108763595       0.722679425984
87.5109388674       0.673635657246
88.0110013752       0.627669377307
88.511063883       0.58454353286
89.0111263908       0.544041297484
89.5111888986       0.505964200181
90.0112514064       0.47013043215
90.5113139142       0.436373315687
91.0113764221       0.404539920173
91.5114389299       0.374489811219
92.0115014377       0.34609392015
92.5115639455       0.319233522124
93.0116264533       0.293799312213
93.5116889611       0.269690569777
94.0117514689       0.246814402364
94.5118139767       0.225085061257
95.0118764846       0.204423321519
95.5119389924       0.184755920131
96.0120015002       0.166015046466
96.512064008       0.148137879902
97.0121265158       0.131066169926
97.5121890236       0.114745854543
98.0122515314       0.0991267132425
98.5123140393       0.0841620511502
99.0123765471       0.0698084113298
99.5124390549       0.0560253125287
100.012501563       0.0427750099175
100.512564071       0.0300222766294
101.012626578       0.0177342041259
101.512689086       0.00588001961341
102.012751594       -0.00556908108857
102.512814102       -0.0166400866673
103.01287661       -0.027358310721
103.512939117       -0.0377475206188
104.013001625       -0.0478300558702
104.513064133       -0.0576269369599
105.013126641       -0.0671579655064
105.513189149       -0.0764418165265
106.013251656       -0.0854961235086
106.513314164       -0.0943375569338
107.013376672       -0.102981896826
107.51343918       -0.111444099851
108.013501688       -0.11973836145
108.513564196       -0.127878173432
109.013626703       -0.135876377428
109.513689211       -0.143745214556
110.013751719       -0.151496371638
110.513814227       -0.159141024253
111.013876735       -0.166689876916
111.513939242       -0.174153200614
112.01400175       -0.181540867939
112.514064258       -0.188862386034
113.014126766       -0.196126927528
113.514189274       -0.203343359647
114.014251781       -0.210520271673
114.514314289       -0.21766600088
115.014376797       -0.224788657109
115.514439305       -0.231896146096
116.014501813       -0.238996191684
116.514564321       -0.24609635702
117.014626828       -0.253204064857
117.514689336       -0.260326617038
118.014751844       -0.267471213277
118.514814352       -0.27464496931
119.01487686       -0.281854934503
119.514939367       -0.289108108988
120.015001875       -0.296411460423
120.515064383       -0.303771940422
121.015126891       -0.311196500743
121.515189399       -0.318692109296
122.015251906       -0.326265766035
122.515314414       -0.333924518804
123.015376922       -0.341675479198
123.51543943       -0.349525838505
124.015501938       -0.35748288379
124.515564446       -0.365554014192
125.015626953       -0.37374675749
125.515689461       -0.382068787015
126.015751969       -0.390527938972
126.515814477       -0.399132230237
127.015876985       -0.407889876713
127.515939492       -0.416809312314
128.016002       -0.42589920866
128.516064508       -0.435168495562
129.016127016       -0.444626382393
129.516189524       -0.45428238043
130.016252032       -0.464146326279
130.516314539       -0.474228406469
131.016377047       -0.484539183352
131.516439555       -0.495089622413
132.016502063       -0.505891121126
132.516564571       -0.516955539499
133.016627078       -0.528295232456
133.516689586       -0.539923084219
134.016752094       -0.551852544872
134.516814602       -0.564097669297
135.01687711       -0.576673158682
135.516939617       -0.589594404845
136.017002125       -0.602877537605
136.517064633       -0.616539475478
137.017127141       -0.630597979988
137.517189649       -0.64507171392
138.017252157       -0.65998030385
138.517314664       -0.675344407365
139.017377172       -0.691185785358
139.51743968       -0.707527379897
140.017502188       -0.724393398149
140.517564696       -0.741809402925
141.017627203       -0.759802410465
141.517689711       -0.778400996133
142.017752219       -0.797635408771
142.517814727       -0.817537694522
143.017877235       -0.838141831048
143.517939742       -0.859483873123
144.01800225       -0.881602110724
144.518064758       -0.904537240833
145.018127266       -0.928332554309
145.518189774       -0.953034139335
146.018252282       -0.978691103093
146.518314789       -1.00535581352
147.018377297       -1.03308416318
147.518439805       -1.06193585757
148.018502313       -1.09197473024
148.518564821       -1.12326908778
149.018627328       -1.15589208751
149.518689836       -1.18992215151
150.018752344       -1.22544342078
150.518814852       -1.26254625373
151.01887736       -1.30132777392
151.518939867       -1.34189247206
152.019002375       -1.38435286826
152.519064883       -1.42883024097
153.019127391       -1.47545542966
153.519189899       -1.52436971921
154.019252407       -1.57572581457
154.519314914       -1.62968891527
155.019377422       -1.6864379001
155.51943993       -1.74616663325
156.019502438       -1.80908540402
156.519564946       -1.87542251317
157.019627453       -1.94542601952
157.519689961       -2.0193656611
158.019752469       -2.09753496541
158.519814977       -2.18025356286
159.019877485       -2.26786971693
159.519939992       -2.36076308228
160.0200025       -2.45934769895
160.520065008       -2.56407522561
161.020127516       -2.67543840648
161.520190024       -2.79397475542
162.020252532       -2.92027042383
162.520315039       -3.05496419569
163.020377547       -3.19875152134
163.520440055       -3.35238845732
164.020502563       -3.51669532051
164.520565071       -3.69255978541
165.020627578       -3.88093904813
165.520690086       -4.08286054291
166.020752594       -4.29942051775
166.520815102       -4.53177954771
167.02087761       -4.78115377658
167.520940118       -5.04880032439
168.021002625       -5.33599487525
168.521065133       -5.64399897461
169.021127641       -5.97401403966
169.521190149       -6.32711857461
170.021252657       -6.70418468
170.521315164       -7.10576981614
171.021377672       -7.53198017895
171.52144018       -7.98230333417
172.021502688       -8.45541040972
172.521565196       -8.94893271413
173.021627703       -9.45922463589
173.521690211       -9.98113430213
174.021752719       -10.507815282
174.521815227       -11.0306249691
175.021877735       -11.5391648738
175.521940243       -12.0215198665
176.02200275       -12.4647414538
176.522065258       -12.8555896728
177.022127766       -13.1814988945
177.522190274       -13.4316723546
178.022252782       -13.5981549377
178.522315289       -13.6767049219
179.022377797       -13.6673004334
179.522440305       -13.574178718
180.022502813       -13.405400625
180.522565321       -13.1720294371
181.022627828       -12.8870817911
181.522690336       -12.5644308408
182.022752844       -12.2178187221
182.522815352       -11.8600826947
183.02287786       -11.5026383826
183.522940368       -11.1552118334
184.023002875       -10.8257786105
184.523065383       -10.5206535844
185.023127891       -10.2446751582
185.523190399       -10.0014363862
186.023252907       -9.79352755089
186.523315414       -9.62276668388
187.023377922       -9.49040437777
187.52344043       -9.39729642887
188.023502938       -9.34404251217
188.523565446       -9.3310916875
189.023627953       -9.35881660982
189.523690461       -9.4275583506
190.023752969       -9.53764310965
190.523815477       -9.68937108924
191.023877985       -9.88297662879
191.523940493       -10.1185575423
192.024003       -10.3959706643
192.524065508       -10.7146901537
193.024128016       -11.0736254922
193.524190524       -11.4708978473
194.024253032       -11.9035771694
194.524315539       -12.3673887632
195.024378047       -12.856407668
195.524440555       -13.3627721216
196.024503063       -13.8764627277
196.524565571       -14.3852091238
197.024628079       -14.8745961449
197.524690586       -15.3284398475
198.024753094       -15.7294827619
198.524815602       -16.06041241
199.02487811       -16.3051394205
199.524940618       -16.4501942025
200.025003125       -16.4860372592
200.525065633       -16.4080548128
201.025128141       -16.2170469396
201.525190649       -15.9191080943
202.025253157       -15.5249243274
202.525315664       -15.0486281024
203.025378172       -14.5064243579
203.52544068       -13.9152135127
204.025503188       -13.2913953796
204.525565696       -12.6499657614
205.025628204       -12.003941575
205.525690711       -11.3640903067
206.025753219       -10.7389037846
206.525815727       -10.1347434614
207.025878235       -9.55608820756
207.525940743       -9.00582846844
208.02600325       -8.48556638738
208.526065758       -7.99589622351
209.026128266       -7.53665121958
209.526190774       -7.10711155889
210.026253282       -6.70617352915
210.526315789       -6.33248314297
211.026378297       -5.98453894032
211.526440805       -5.66076910529
212.026503313       -5.35958781242
212.526565821       -5.07943518259
213.026628329       -4.81880457209
213.526690836       -4.57626025557
214.026753344       -4.35044795601
214.526815852       -4.14010014851
215.02687836       -3.94403762633
215.526940868       -3.76116846226
216.027003375       -3.5904852163
216.527065883       -3.43106102025
217.027128391       -3.28204500037
217.527190899       -3.14265736979
218.027253407       -3.0121844251
218.527315914       -2.88997360879
219.027378422       -2.77542874564
219.52744093       -2.66800552188
220.027503438       -2.56720724754
220.527565946       -2.47258092242
221.027628454       -2.38371361198
221.527690961       -2.30022912982
222.027753469       -2.22178501724
222.527815977       -2.14806980639
223.027878485       -2.07880055138
223.527940993       -2.0137206106
224.0280035       -1.95259766354
224.528066008       -1.89522194541
225.028128516       -1.84140468388
225.528191024       -1.79097672281
226.028253532       -1.74378731891
226.52831604       -1.69970309782
227.028378547       -1.6586071569
227.528441055       -1.62039830194
228.028503563       -1.58499040541
228.528566071       -1.55231187235
229.028628579       -1.52230519935
229.528691086       -1.49492660897
230.028753594       -1.47014573855
230.528816102       -1.44794535695
231.02887861       -1.42832107513
231.528941118       -1.41128100658
232.029003625       -1.3968453198
232.529066133       -1.38504560761
233.029128641       -1.37592397514
233.529191149       -1.36953171978
234.029253657       -1.36592744141
234.529316165       -1.36517437901
235.029378672       -1.36733672256
235.52944118       -1.37247459785
236.029503688       -1.38063737408
236.529566196       -1.391854909
237.029628704       -1.40612634158
237.529691211       -1.42340609497
238.029753719       -1.4435868987
238.529816227       -1.46647992786
239.029878735       -1.49179264117
239.529941243       -1.51910562482
240.03000375       -1.5478507268
240.530066258       -1.57729393492
241.030128766       -1.60652762346
241.530191274       -1.63447761583
242.030253782       -1.65993046985
242.53031629       -1.68158491202
243.030378797       -1.69812802461
243.530441305       -1.70833172752
244.030503813       -1.7111592024
244.530566321       -1.70586590153
245.030628829       -1.69207772877
245.530691336       -1.66983136223
246.030753844       -1.63956849429
246.530816352       -1.60208517213
247.03087886       -1.55844644756
247.530941368       -1.50988238141
248.031003875       -1.45768268646
248.531066383       -1.40310434721
249.031128891       -1.34730114498
249.531191399       -1.29127819301
250.031253907       -1.2358698967
250.531316415       -1.18173689338
251.031378922       -1.12937644385
251.53144143       -1.07914096913
252.031503938       -1.03126037505
252.531566446       -0.985865003918
253.031628954       -0.943007186029
253.531691461       -0.90268028249
254.031753969       -0.864834774474
254.531816477       -0.82939138583
255.031878985       -0.796251475197
255.531941493       -0.765305053393
256.032004001       -0.736436817227
256.532066508       -0.709530576769
257.032129016       -0.684472413421
257.532191524       -0.661152856413
258.032254032       -0.63946831469
258.53231654       -0.619321954463
259.032379047       -0.600624172186
259.532441555       -0.583292778832
260.032504063       -0.567252983903
260.532566571       -0.552437245753
261.032629079       -0.538785037785
261.532691586       -0.526242566904
262.032754094       -0.51476247066
262.532816602       -0.504303511963
263.03287911       -0.494830284656
