#  x                 y             frequency           rot. str.
0.0      -0.57331665514      32.11      -14.58
0.500062507813      -0.596855720569      41.16      -4.18
1.00012501563      -0.621554899142      77.40      29.88
1.50018752344      -0.647484665194      81.52      14.02
2.00025003125      -0.674720643284      161.62      -0.56
2.50031253907      -0.70334404756      229.73      -6.34
3.00037504688      -0.733442163572      253.90      -17.03
3.50043755469      -0.765108877027      273.57      2.92
4.00050006251      -0.798445254472      327.91      21.72
4.50056257032      -0.833560181467      334.42      42.21
5.00062507813      -0.870571064388      338.86      -73.34
5.50068758595      -0.909604602716      356.49      4.36
6.00075009376      -0.950797639384      422.61      5.99
6.50081260158      -0.994298097557      430.51      -0.26
7.00087510939      -1.04026601315      494.32      2.97
7.5009376172      -1.08887467327      527.12      -37.88
8.00100012502      -1.14031187187      564.80      36.34
8.50106263283      -1.19478129494      587.39      49.74
9.00112514064      -1.25250404861      618.00      -24.60
9.50118764846      -1.31372034487      660.32      3.41
10.0012501563      -1.37869136054      733.69      1.16
10.5013126641      -1.44770128619      757.75      41.87
11.0013751719      -1.5210595828      786.54      14.61
11.5014376797      -1.59910346419      791.81      -54.55
12.0015001875      -1.68220062379      820.11      -24.56
12.5015626953      -1.77075222369      846.37      -67.33
13.0016252032      -1.86519616232      860.14      -3.61
13.501687711      -1.96601063474      888.13      36.94
14.0017502188      -2.07371799421      950.42      0.13
14.5018127266      -2.18888891692      954.94      8.48
15.0018752344      -2.3121468602      970.17      -14.08
15.5019377422      -2.44417278873      1020.91      63.87
16.00200025      -2.58571012035      1036.89      -0.46
16.5020627578      -2.73756981122      1090.32      47.50
17.0021252657      -2.90063545609      1124.45      -73.93
17.5021877735      -3.07586821959      1141.89      -81.64
18.0022502813      -3.26431133393      1188.19      2.54
18.5023127891      -3.46709379042      1200.24      -2.30
19.0023752969      -3.68543271024      1205.49      20.57
19.5024378047      -3.92063369393      1232.45      6.69
20.0025003125      -4.17408820901      1252.69      14.33
20.5025628204      -4.44726677042      1286.68      26.91
21.0026253282      -4.7417062872      1306.14      -4.98
21.502687836      -5.05898948484      1325.04      35.77
22.0027503438      -5.40071376393      1350.87      -11.99
22.5028128516      -5.76844623751      1366.71      10.05
23.0028753594      -6.16366104043      1378.25      5.46
23.5029378672      -6.58765440517      1438.02      13.71
24.003000375      -7.04143259561      1474.80      7.53
24.5030628829      -7.52556781935      1483.26      6.14
25.0031253907      -8.04001805681      1552.35      -16.46
25.5031878985      -8.58390884843      1635.51      -1.72
26.0032504063      -9.15527909279      1650.81      -1.34
26.5033129141      -9.7507995038      1659.61      7.98
27.0033754219      -10.3654820867      1822.91      73.32
27.5034379297      -10.9924118514      2964.08      7.26
28.0035004376      -11.6225469763      3032.73      -4.18
28.5035629454      -12.2446480745      3101.72      0.57
29.0036254532      -12.8454062431      3151.66      -0.82
29.503687961      -13.4098364244      3155.10      2.84
30.0037504688      -13.9219800712      3194.18      1.10
30.5038129766      -14.3659148477      3198.39      -0.28
31.0038754844      -14.7270018946      3489.62      -3.23
31.5039379922      -14.9932264217      3569.03      -0.22
32.0040005001      -15.1564282012      3722.36      9.29
32.5040630079      -15.2132007776      3799.26      -6.29
33.0041255157       -15.1652782901
33.5041880235       -15.0193227595
34.0042505313       -14.7861461637
34.5043130391       -14.4795120203
35.0043755469       -14.1147271652
35.5044380548       -13.7072421424
36.0045005626       -13.271436971
36.5045630704       -12.8197014638
37.0046255782       -12.3618510255
37.504688086       -11.9048671698
38.0047505938       -11.4529225777
38.5048131016       -11.0076396034
39.0048756095       -10.5685301667
39.5049381173       -10.1335653454
40.0050006251       -9.69981947439
40.5050631329       -9.26412613626
41.0051256407       -8.82367685006
41.5051881485       -8.37649467202
42.0052506563       -7.92172981062
42.5053131641       -7.45975287334
43.005375672       -6.99205713205
43.5054381798       -6.521013807
44.0055006876       -6.04954426411
44.5055631954       -5.58077581705
45.0056257032       -5.11773562406
45.505688211       -4.6631165317
46.0057507188       -4.21912710564
46.5058132267       -3.78742095599
47.0058757345       -3.36909012855
47.5059382423       -2.96470345434
48.0060007501       -2.57437153699
48.5060632579       -2.19782341008
49.0061257657       -1.83448409767
49.5061882735       -1.48354626741
50.0062507813       -1.1440323483
50.5063132892       -0.814845765105
51.006375797       -0.494811406679
51.5064383048       -0.182706273982
52.0065008126       0.122718366392
52.5065633204       0.422721905845
53.0066258282       0.718565053101
53.506688336       1.01150504758
54.0067508439       1.30279443575
54.5068133517       1.59368260938
55.0068758595       1.88541947816
55.5069383673       2.17926079843
56.0070008751       2.47647480423
56.5070633829       2.77834988726
57.0071258907       3.08620315132
57.5071883985       3.40138972746
58.0072509064       3.72531278145
58.5073134142       4.05943417605
59.007375922       4.40528577065
59.5074384298       4.76448134806
60.0075009376       5.13872915513
60.5075634454       5.52984502701
61.0076259532       5.93976603357
61.5076884611       6.37056453661
62.0077509689       6.82446247321
62.5078134767       7.30384557734
63.0078759845       7.81127710941
63.5079384923       8.34951047095
64.0080010001       8.92149982382
64.5080635079       9.53040749354
65.0081260158       10.1796064927
65.5081885236       10.8726759292
66.0082510314       11.6133863412
66.5083135392       12.4056711016
67.008376047       13.2535789461
67.5084385548       14.1612014068
68.0085010626       15.1325675148
68.5085635704       16.1714966816
69.0086260783       17.2813993875
69.5086885861       18.4650145501
70.0087510939       19.7240728036
70.5088136017       21.0588772216
71.0088761095       22.4677984039
71.5089386173       23.9466906736
72.0090011251       25.4882517453
72.509063633       27.081370424
73.0091261408       28.7105350856
73.5091886486       30.3554066128
74.0092511564       31.990686021
74.5093136642       33.5864177537
75.009376172       35.1088502147
75.5094386798       36.5219129321
76.0095011876       37.7892617546
76.5095636955       38.8767046685
77.0096262033       39.7546880176
77.5096887111       40.4004472411
78.0097512189       40.7994525997
78.5098137267       40.9459212145
79.0098762345       40.8423862685
79.5099387423       40.4985368219
80.0100012502       39.929684874
80.510063758       39.1552305977
81.0101262658       38.1973890518
81.5101887736       37.0802694277
82.0102512814       35.8292380183
82.5103137892       34.4704085616
83.010376297       33.0301073728
83.5104388049       31.5342325313
84.0105013127       30.0075197049
84.5105638205       28.4727977861
85.0106263283       26.9503423932
85.5106888361       25.457416487
86.0107513439       24.0080432389
86.5108138517       22.6130084963
87.0108763595       21.2800541023
87.5109388674       20.0142048875
88.0110013752       18.818169771
88.511063883       17.6927657466
89.0111263908       16.6373268205
89.5111888986       15.650073776
90.0112514064       14.7284324258
90.5113139142       13.8692967698
91.0113764221       13.0692392337
91.5114389299       12.3246734249
92.0115014377       11.6319762977
92.5115639455       10.9875768677
93.0116264533       10.3880181657
93.5116889611       9.82999831859
94.0117514689       9.31039571744
94.5118139767       8.82628232252
95.0118764846       8.37492832778
95.5119389924       7.95380069828
96.0120015002       7.56055750505
96.512064008       7.19303950746
97.0121265158       6.84926005777
97.5121890236       6.52739411113
98.0122515314       6.22576690072
98.5123140393       5.94284266872
99.0123765471       5.67721371769
99.5124390549       5.42758995345
100.012501563       5.19278902244
100.512564071       4.97172709794
101.012626578       4.76341033478
101.512689086       4.56692698827
102.012751594       4.38144017746
102.512814102       4.20618126224
103.01287661       4.04044379807
103.512939117       3.88357802877
104.013001625       3.73498587714
104.513064133       3.5941163931
105.013126641       3.46046162098
105.513189149       3.33355284891
106.013251656       3.212957206
106.513314164       3.09827457531
107.013376672       2.98913479294
107.51343918       2.88519510625
108.013501688       2.78613786651
108.513564196       2.69166843338
109.013626703       2.60151327097
109.513689211       2.51541821684
110.013751719       2.43314690746
110.513814227       2.3544793448
111.013876735       2.27921059077
111.513939242       2.20714957702
112.01400175       2.13811801921
112.514064258       2.07194942574
113.014126766       2.00848819216
113.514189274       1.94758877294
114.014251781       1.88911492361
114.514314289       1.8329390066
115.014376797       1.7789413549
115.514439305       1.72700968829
116.014501813       1.67703857728
116.514564321       1.62892895048
117.014626828       1.5825876415
117.514689336       1.5379269718
118.014751844       1.49486436636
118.514814352       1.45332199929
119.01487686       1.41322646662
119.514939367       1.37450848411
120.015001875       1.33710260779
120.515064383       1.3009469753
121.015126891       1.26598306626
121.515189399       1.23215548005
122.015251906       1.19941172956
122.515314414       1.16770204948
123.015376922       1.13697921803
123.51543943       1.10719839088
124.015501938       1.07831694629
124.515564446       1.05029434057
125.015626953       1.02309197293
125.515689461       0.996673058902
126.015751969       0.971002511686
126.515814477       0.946046830686
127.015876985       0.921773996586
127.515939492       0.898153372418
128.016002       0.875155610049
128.516064508       0.85275256158
129.016127016       0.830917195173
129.516189524       0.809623514839
130.016252032       0.788846483756
130.516314539       0.76856195069
131.016377047       0.748746579132
131.516439555       0.729377778726
132.016502063       0.710433638636
132.516564571       0.691892862446
133.016627078       0.673734704222
133.516689586       0.655938905358
134.016752094       0.63848563181
134.516814602       0.621355411323
135.01687711       0.604529070245
135.516939617       0.587987669503
136.017002125       0.571712439291
136.517064633       0.555684712012
137.017127141       0.539885852972
137.517189649       0.524297188308
138.017252157       0.5088999296
138.517314664       0.493675094566
139.017377172       0.478603423236
139.51743968       0.463665288929
140.017502188       0.448840603361
140.517564696       0.434108715153
141.017627203       0.419448301031
141.517689711       0.404837248972
142.017752219       0.390252532613
142.517814727       0.375670076273
143.017877235       0.361064610084
143.517939742       0.3464095149
144.01800225       0.331676656955
144.518064758       0.316836212675
145.018127266       0.301856484691
145.518189774       0.286703710983
146.018252282       0.271341870314
146.518314789       0.255732488864
147.018377297       0.239834455228
147.518439805       0.223603854132
148.018502313       0.206993833337
148.518564821       0.189954523728
149.018627328       0.172433039726
149.518689836       0.154373596454
150.018752344       0.135717791811
150.518814852       0.116405116299
151.01887736       0.0963737712977
151.518939867       0.0755618976118
152.019002375       0.0539093398024
152.519064883       0.0313600967558
153.019127391       0.00786563176486
153.519189899       -0.0166107693658
154.019252407       -0.0420884052513
154.519314914       -0.0685621760999
155.019377422       -0.0959941381954
155.51943993       -0.124303678383
156.019502438       -0.153356646602
156.519564946       -0.182954159917
157.019627453       -0.21282228794
157.519689961       -0.242604407503
158.019752469       -0.271858569737
158.519814977       -0.300062568098
159.019877485       -0.326629270377
159.519939992       -0.350933905779
160.0200025       -0.372353214794
160.520065008       -0.390313786993
161.020127516       -0.404344048107
161.520190024       -0.414122105494
162.020252532       -0.41951101057
162.520315039       -0.420574569269
163.020377547       -0.417570461471
163.520440055       -0.410922091722
164.020502563       -0.401174797609
164.520565071       -0.388944507408
165.020627578       -0.374867138114
165.520690086       -0.359555302628
166.020752594       -0.343566153753
166.520815102       -0.327381411605
167.02087761       -0.311398484217
167.520940118       -0.295930363479
168.021002625       -0.281211585382
168.521065133       -0.267407735104
169.021127641       -0.254626476177
169.521190149       -0.242928668795
170.021252657       -0.232338679138
170.521315164       -0.222853406907
171.021377672       -0.214449859806
171.52144018       -0.207091296114
172.021502688       -0.200732064694
172.521565196       -0.195321321211
173.021627703       -0.190805811108
173.521690211       -0.187131900105
174.021752719       -0.184247012264
174.521815227       -0.182100611161
175.021877735       -0.180644835183
175.521940243       -0.17983487578
176.02200275       -0.179629168263
176.522065258       -0.179989448857
177.022127766       -0.180880718844
177.522190274       -0.182271146398
178.022252782       -0.184131928824
178.522315289       -0.186437131729
179.022377797       -0.189163517052
179.522440305       -0.192290368352
180.022502813       -0.195799319144
180.522565321       -0.199674188152
181.022627828       -0.20390082394
181.522690336       -0.208466960359
182.022752844       -0.213362083552
182.522815352       -0.218577310726
183.02287786       -0.224105280591
183.522940368       -0.229940055117
184.023002875       -0.236077032157
184.523065383       -0.242512868373
185.023127891       -0.249245411914
185.523190399       -0.256273644246
186.023252907       -0.263597630618
186.523315414       -0.271218478617
187.023377922       -0.279138304363
187.52344043       -0.287360205927
188.023502938       -0.295888243589
188.523565446       -0.304727426645
189.023627953       -0.3138837065
189.523690461       -0.323363975844
190.023752969       -0.33317607377
190.523815477       -0.343328796746
191.023877985       -0.353831915395
191.523940493       -0.3646961971
192.024003       -0.375933434515
192.524065508       -0.387556480088
193.024128016       -0.399579286786
193.524190524       -0.412016955256
194.024253032       -0.424885787715
194.524315539       -0.438203348931
195.024378047       -0.451988534714
195.524440555       -0.466261648413
196.024503063       -0.481044485993
196.524565571       -0.496360430333
197.024628079       -0.512234555505
197.524690586       -0.528693741843
198.024753094       -0.545766802781
198.524815602       -0.563484624489
199.02487811       -0.581880319519
199.524940618       -0.600989395786
200.025003125       -0.620849942374
200.525065633       -0.641502833828
201.025128141       -0.662991954796
201.525190649       -0.685364447087
202.025253157       -0.708670981441
202.525315664       -0.732966056592
203.025378172       -0.758308328459
203.52544068       -0.784760972625
204.025503188       -0.812392083629
204.525565696       -0.841275114922
205.025628204       -0.87148936378
205.525690711       -0.903120505878
206.025753219       -0.936261184689
206.525815727       -0.971011661335
207.025878235       -1.00748053102
207.525940743       -1.0457855126
208.02600325       -1.0860543184
208.526065758       -1.12842561154
209.026128266       -1.17305005867
209.526190774       -1.22009148562
210.026253282       -1.26972814386
210.526315789       -1.32215409448
211.026378297       -1.37758071592
211.526440805       -1.43623833922
212.026503313       -1.4983780118
212.526565821       -1.56427338638
213.026628329       -1.63422272469
213.526690836       -1.70855099668
214.026753344       -1.78761204264
214.526815852       -1.87179074741
215.02687836       -1.96150515176
215.526940868       -2.05720839215
216.027003375       -2.15939031614
216.527065883       -2.26857856179
217.027128391       -2.3853388123
217.527190899       -2.5102738381
218.027253407       -2.64402081122
218.527315914       -2.78724621831
219.027378422       -2.94063750363
219.52744093       -3.10489034222
220.027503438       -3.28069017957
220.527565946       -3.46868639337
221.027628454       -3.66945716541
221.527690961       -3.88346295515
222.027753469       -4.11098643529
222.527815977       -4.352057028
223.027878485       -4.60635897284
223.527940993       -4.87312342641
224.0280035       -5.15100773317
224.528066008       -5.43796897117
225.028128516       -5.7311442356
225.528191024       -6.0267565485
226.028253532       -6.32007176108
226.52831604       -6.60543642617
227.028378547       -6.87642654294
227.528441055       -7.12612913826
228.028503563       -7.34756058095
228.528566071       -7.53419780941
229.028628579       -7.68056617164
229.528691086       -7.78279973408
230.028753594       -7.83907808355
230.528816102       -7.84985615925
231.02887861       -7.817840677
231.528941118       -7.74771840885
232.029003625       -7.64569159201
232.529066133       -7.51890846325
233.029128641       -7.37488435954
233.529191149       -7.22099304257
234.029253657       -7.06407826716
234.529316165       -6.91020344448
235.029378672       -6.7645311817
235.52944118       -6.63130845622
236.029503688       -6.51392699921
236.529566196       -6.41502954047
237.029628704       -6.33663772176
237.529691211       -6.28028405102
238.029753719       -6.24713650889
238.529816227       -6.23810947246
239.029878735       -6.25395825243
239.529941243       -6.29535686694
240.03000375       -6.36295996124
240.530066258       -6.45745031107
241.030128766       -6.57957336205
241.530191274       -6.73015993816
242.030253782       -6.91013772082
242.53031629       -7.1205314291
243.030378797       -7.36245086144
243.530441305       -7.63706511155
244.030503813       -7.94556036428
244.530566321       -8.28907774303
245.030628829       -8.66862678387
245.530691336       -9.08496937565
246.030753844       -9.53846864153
246.530816352       -10.0288975809
247.03087886       -10.5552038298
247.530941368       -11.1152302864
248.031003875       -11.7053973587
248.531066383       -12.3203619698
249.031128891       -12.9526816154
249.531191399       -13.59252825
250.031253907       -14.2275145689
250.531316415       -14.8427100398
251.031378922       -15.4209289856
251.53144143       -15.943359635
252.031503938       -16.3905639399
252.531566446       -16.7438113489
253.031628954       -16.986624477
253.531691461       -17.1063322951
254.031753969       -17.0953770993
254.531816477       -16.9521319357
255.031878985       -16.6810642736
255.531941493       -16.292211799
256.032004001       -15.8000772568
256.532066508       -15.2221563517
257.032129016       -14.5773560795
257.532191524       -13.8845372092
258.032254032       -13.1613440261
258.53231654       -12.4233971983
259.032379047       -11.6838483228
259.532441555       -10.9532422754
260.032504063       -10.2396086574
260.532566571       -9.54870102016
261.032629079       -8.88431371561
261.532691586       -8.2486233483
262.032754094       -7.64251935231
262.532816602       -7.06590317809
263.03287911       -6.51794684271
263.532941618       -5.99730925851
264.033004126       -5.50231344632
264.533066633       -5.03109024137
265.033129141       -4.58169511867
