#  x                 y             frequency           rot. str.
0.0      -0.00362221054026      28.92      6.32
0.500062507813      0.00304660729918      45.24      -5.23
1.00012501563      0.0102112923806      61.64      -16.12
1.50018752344      0.0179094895074      67.71      -1.61
2.00025003125      0.0261820511821      173.37      -4.09
2.50031253907      0.0350733438019      185.47      -3.00
3.00037504688      0.0446315857933      201.24      10.57
3.50043755469      0.0549092211732      273.95      -1.37
4.00050006251      0.0659633323881      303.47      6.00
4.50056257032      0.0778560966776      336.07      -7.33
5.00062507813      0.0906552906243      359.56      1.34
5.50068758595      0.104434847986      392.34      -16.33
6.00075009376      0.119275476353      422.05      -2.43
6.50081260158      0.135265338626      431.94      -2.74
7.00087510939      0.152500805701      488.41      9.85
7.5009376172      0.171087287167      504.47      35.02
8.00100012502      0.191140147042      554.35      -45.73
8.50106263283      0.21278571175      599.56      -33.76
9.00112514064      0.236162377407      655.54      -1.37
9.50118764846      0.261421823068      660.44      -3.26
10.0012501563      0.28873033564      718.94      33.98
10.5013126641      0.31827025059      747.79      13.60
11.0013751719      0.350241509956      793.92      24.70
11.5014376797      0.384863335324      813.67      -12.35
12.0015001875      0.422376007712      837.27      203.78
12.5015626953      0.463042738152      847.70      -237.81
13.0016252032      0.507151601334      869.41      12.10
13.501687711      0.555017488851      886.89      1.01
14.0017502188      0.606984016882      926.05      31.60
14.5018127266      0.663425293879      946.68      16.48
15.0018752344      0.72474741446      960.82      7.35
15.5019377422      0.791389493533      993.50      -18.51
16.00200025      0.863823986046      1036.66      0.20
16.5020627578      0.942555948594      1116.44      -5.40
17.0021252657      1.0281207847      1125.19      76.06
17.5021877735      1.12107987115      1148.41      -36.49
18.0022502813      1.22201328403      1160.98      -25.20
18.5023127891      1.33150862751      1192.06      10.07
19.0023752969      1.45014471817      1199.77      3.09
19.5024378047      1.57846860163      1236.19      -0.93
20.0025003125      1.71696410027      1265.94      -42.00
20.5025628204      1.86600985492      1285.93      -8.82
21.0026253282      2.02582470611      1302.49      -13.82
21.502687836      2.19639838338      1340.00      -7.74
22.0027503438      2.37740601081      1357.07      -49.48
22.5028128516      2.56810613201      1358.73      8.67
23.0028753594      2.76722409356      1367.21      -7.68
23.5029378672      2.97282598475      1420.90      45.14
24.003000375      3.18219308629      1475.07      -7.35
24.5030628829      3.39171280464      1491.47      -1.52
25.0031253907      3.59680868138      1551.96      11.12
25.5031878985      3.79193776098      1636.19      1.21
26.0032504063      3.97068592202      1659.09      -2.35
26.5033129141      4.12598760369      1670.80      16.84
27.0033754219      4.25048283994      1804.52      -33.44
27.5034379297      4.33700071052      3035.91      -4.80
28.0035004376      4.3791270744      3069.54      -5.07
28.5035629454      4.3717833433      3087.03      9.45
29.0036254532      4.31172307129      3151.08      0.76
29.503687961      4.19785458811      3159.40      -1.58
30.0037504688      4.03132495077      3194.19      1.90
30.5038129766      3.81534751039      3196.15      0.77
31.0038754844      3.55480813009      3482.31      -5.88
31.5039379922      3.25572669406      3558.18      10.30
32.0040005001      2.92466917882      3715.55      4.69
32.5040630079      2.56819901803      3800.19      5.11
33.0041255157       2.19243157129
33.5041880235       1.8027233386
34.0042505313       1.40349832392
34.5043130391       0.998193648853
35.0043755469       0.589296549885
35.5044380548       0.178443465187
36.0045005626       -0.233444076474
36.5045630704       -0.646005602409
37.0046255782       -1.0592820108
37.504688086       -1.47355650665
38.0047505938       -1.88919853826
38.5048131016       -2.30651081151
39.0048756095       -2.72557891601
39.5049381173       -3.14612426386
40.0050006251       -3.56736385848
40.5050631329       -3.98788473428
41.0051256407       -4.40554633609
41.5051881485       -4.81742974445
42.0052506563       -5.21985690332
42.5053131641       -5.6085035481
43.005375672       -5.9786237219
43.5054381798       -6.32538963389
44.0055006876       -6.64432835427
44.5055631954       -6.93181022211
45.0056257032       -7.18552041772
45.505688211       -7.40483430779
46.0057507188       -7.59102609759
46.5058132267       -7.74726969384
47.0058757345       -7.87843288589
47.5059382423       -7.99070767635
48.0060007501       -8.09114772301
48.5060632579       -8.18719126632
49.0061257657       -8.28623577616
49.5061882735       -8.39530630848
50.0062507813       -8.52083257691
50.5063132892       -8.66852735027
51.006375797       -8.84334449088
51.5064383048       -9.04948876726
52.0065008126       -9.29044947586
52.5065633204       -9.56903330412
53.0066258282       -9.88737660525
53.506688336       -10.2469220062
54.0067508439       -10.6483485408
54.5068133517       -11.0914484593
55.0068758595       -11.5749481378
55.5069383673       -12.0962760049
56.0070008751       -12.6512880971
56.5070633829       -13.2339725775
57.0071258907       -13.8361685325
57.5071883985       -14.4473506833
58.0072509064       -15.0545475186
58.5073134142       -15.6424706
59.007375922       -16.1939300261
59.5074384298       -16.6905873048
60.0075009376       -17.1140471003
60.5075634454       -17.4472160996
61.0076259532       -17.6757747435
61.5076884611       -17.7895410083
62.0077509689       -17.7834835788
62.5078134767       -17.6581836767
63.0078759845       -17.4196474371
63.5079384923       -17.0785058356
64.0080010001       -16.6487639508
64.5080635079       -16.1463374683
65.0081260158       -15.5876242272
65.5081885236       -14.9883099152
66.0082510314       -14.3625245272
66.5083135392       -13.7223784561
67.008376047       -13.0778357582
67.5084385548       -12.436838007
68.0085010626       -11.8055764491
68.5085635704       -11.1888180241
69.0086260783       -10.5902142024
69.5086885861       -10.0125515752
70.0087510939       -9.4579314428
70.5088136017       -8.92788644164
71.0088761095       -8.42345304232
71.5089386173       -7.94522047224
72.0090011251       -7.49337233898
72.509063633       -7.06773057394
73.0091261408       -6.66780509104
73.5091886486       -6.29284823192
74.0092511564       -5.94191091871
74.5093136642       -5.61389700698
75.009376172       -5.30761293803
75.5094386798       -5.0218108168
76.0095011876       -4.75522407652
76.5095636955       -4.50659572123
77.0096262033       -4.27469969961
77.5096887111       -4.05835627663
78.0097512189       -3.85644239132
78.5098137267       -3.66789798107
79.0098762345       -3.4917291679
79.5099387423       -3.327009081
80.0100012502       -3.17287695845
80.510063758       -3.0285360444
81.0101262658       -2.89325068624
81.5101887736       -2.76634294034
82.0102512814       -2.64718891694
82.5103137892       -2.53521503224
83.010376297       -2.42989428687
83.5104388049       -2.33074265234
84.0105013127       -2.23731561917
84.5105638205       -2.14920493908
85.0106263283       -2.06603557859
85.5106888361       -1.98746289049
86.0107513439       -1.91317000189
86.5108138517       -1.84286541265
87.0108763595       -1.77628079441
87.5109388674       -1.71316897863
88.0110013752       -1.65330212104
88.511063883       -1.59647002941
89.0111263908       -1.54247864166
89.5111888986       -1.49114864192
90.0112514064       -1.44231420245
90.5113139142       -1.39582184042
91.0113764221       -1.35152937891
91.5114389299       -1.30930500272
92.0115014377       -1.26902639997
92.5115639455       -1.23057998161
93.0116264533       -1.1938601712
93.5116889611       -1.15876875867
94.0117514689       -1.12521431156
94.5118139767       -1.0931116387
95.0118764846       -1.06238130096
95.5119389924       -1.03294916497
96.0120015002       -1.00474599549
96.512064008       -0.977707082965
97.0121265158       -0.951771902914
97.5121890236       -0.926883804184
98.0122515314       -0.90298972345
98.5123140393       -0.880039923513
99.0123765471       -0.857987753238
99.5124390549       -0.836789427179
100.012501563       -0.816403823115
100.512564071       -0.796792295902
101.012626578       -0.7779185062
101.512689086       -0.759748262759
102.012751594       -0.742249377104
102.512814102       -0.725391529525
103.01287661       -0.709146145423
103.512939117       -0.693486281121
104.013001625       -0.678386518353
104.513064133       -0.663822866705
105.013126641       -0.649772673344
105.513189149       -0.636214539458
106.013251656       -0.623128242837
106.513314164       -0.610494666128
107.013376672       -0.598295730296
107.51343918       -0.586514332886
108.013501688       -0.575134290725
108.513564196       -0.564140286696
109.013626703       -0.553517820303
109.513689211       -0.543253161726
110.013751719       -0.5333333091
110.513814227       -0.52374594881
111.013876735       -0.514479418546
111.513939242       -0.505522672952
112.01400175       -0.496865251673
112.514064258       -0.48849724963
113.014126766       -0.480409289387
113.514189274       -0.472592495452
114.014251781       -0.465038470401
114.514314289       -0.457739272701
115.014376797       -0.45068739612
115.514439305       -0.443875750645
116.014501813       -0.4372976448
116.514564321       -0.430946769296
117.014626828       -0.424817181937
117.514689336       -0.418903293709
118.014751844       -0.413199856004
118.514814352       -0.407701948918
119.01487686       -0.402404970571
119.514939367       -0.397304627414
120.015001875       -0.39239692548
120.515064383       -0.38767816255
121.015126891       -0.383144921198
121.515189399       -0.378794062696
122.015251906       -0.374622721764
122.515314414       -0.370628302133
123.015376922       -0.366808472931
123.51543943       -0.363161165866
124.015501938       -0.359684573212
124.515564446       -0.356377146598
125.015626953       -0.353237596599
125.515689461       -0.350264893148
126.015751969       -0.347458266772
126.515814477       -0.344817210672
127.015876985       -0.342341483682
127.515939492       -0.340031114113
128.016002       -0.337886404528
128.516064508       -0.33590793749
129.016127016       -0.334096582313
129.516189524       -0.332453502874
130.016252032       -0.33098016655
130.516314539       -0.329678354328
131.016377047       -0.328550172169
131.516439555       -0.327598063715
132.016502063       -0.326824824404
132.516564571       -0.326233617125
133.016627078       -0.325827989496
133.516689586       -0.325611892903
134.016752094       -0.325589703439
134.516814602       -0.325766244878
135.01687711       -0.326146813872
135.516939617       -0.326737207542
136.017002125       -0.327543753678
136.517064633       -0.328573343764
137.017127141       -0.329833469095
137.517189649       -0.33133226025
138.017252157       -0.333078530241
138.517314664       -0.335081821672
139.017377172       -0.33735245829
139.51743968       -0.339901601358
140.017502188       -0.342741311288
140.517564696       -0.345884615091
141.017627203       -0.349345580182
141.517689711       -0.353139395193
142.017752219       -0.357282458512
142.517814727       -0.361792475306
143.017877235       -0.366688563929
143.517939742       -0.371991372675
144.01800225       -0.377723207953
144.518064758       -0.383908175088
145.018127266       -0.390572333087
145.518189774       -0.397743864838
146.018252282       -0.405453264415
146.518314789       -0.413733543285
147.018377297       -0.422620457479
147.518439805       -0.432152757952
148.018502313       -0.442372466632
148.518564821       -0.453325180896
149.018627328       -0.465060409516
149.518689836       -0.477631943374
150.018752344       -0.491098264596
150.518814852       -0.505522998064
151.01887736       -0.520975409561
151.518939867       -0.537530955149
152.019002375       -0.555271886633
152.519064883       -0.574287918183
153.019127391       -0.594676959307
153.519189899       -0.616545919344
154.019252407       -0.640011588385
154.519314914       -0.665201598945
155.019377422       -0.692255471704
155.51943993       -0.721325746925
156.019502438       -0.752579200633
156.519564946       -0.786198140853
157.019627453       -0.822381773832
157.519689961       -0.861347622534
158.019752469       -0.903332969186
158.519814977       -0.948596279181
159.019877485       -0.997418544106
159.519939992       -1.05010445537
160.0200025       -1.10698328507
160.520065008       -1.16840930504
161.020127516       -1.23476151527
161.520190024       -1.30644237703
162.020252532       -1.38387514981
162.520315039       -1.46749931263
163.020377547       -1.55776340792
163.520440055       -1.65511448192
164.020502563       -1.75998311572
164.520565071       -1.87276286332
165.020627578       -1.99378276745
165.520690086       -2.12327156422
166.020752594       -2.26131229591
166.520815102       -2.40778644864
167.02087761       -2.5623075755
167.520940118       -2.7241458449
168.021002625       -2.89214724514
168.521065133       -3.06465437325
169.021127641       -3.23943971932
169.521190149       -3.41366662111
170.021252657       -3.58389655072
170.521315164       -3.74616243849
171.021377672       -3.89612429415
171.52144018       -4.02931370422
172.021502688       -4.14145752383
172.521565196       -4.22885048443
173.021627703       -4.28872679921
173.521690211       -4.31956940553
174.021752719       -4.32129857192
174.521815227       -4.29530112831
175.021877735       -4.24429302894
175.521940243       -4.17204158746
176.02200275       -4.08299879781
176.522065258       -3.98190676431
177.022127766       -3.87342989782
177.522190274       -3.76185121199
178.022252782       -3.65084913359
178.522315289       -3.54335310308
179.022377797       -3.44146445812
179.522440305       -3.34642435104
180.022502813       -3.25861154477
180.522565321       -3.1775579106
181.022627828       -3.10197640566
181.522690336       -3.02980363157
182.022752844       -2.9582653759
182.522815352       -2.88397742704
183.02287786       -2.80309398679
183.522940368       -2.71151096037
184.023002875       -2.60512094388
184.523065383       -2.48010224828
185.023127891       -2.33320939632
185.523190399       -2.16202246572
186.023252907       -1.9651124789
186.523315414       -1.74209201766
187.023377922       -1.49354202145
187.52344043       -1.22083074115
188.023502938       -0.925861043402
188.523565446       -0.610791848697
189.023627953       -0.277777103592
189.523690461       0.0712456472762
190.023752969       0.434700072821
190.523815477       0.811446078832
191.023877985       1.20079152456
191.523940493       1.60245180275
192.024003       2.01646898725
192.524065508       2.44310013748
193.024128016       2.88268110596
193.524190524       3.33546902314
194.024253032       3.80146437047
194.524315539       4.280212774
195.024378047       4.77058780206
195.524440555       5.27055951951
196.024503063       5.77695962665
196.524565571       6.28526269423
197.024628079       6.78941366409
197.524690586       7.28174269344
198.024753094       7.75301636743
198.524815602       8.19267459314
199.02487811       8.58928979999
199.524940618       8.9312555366
200.025003125       9.20766580789
200.525065633       9.40929245913
201.025128141       9.52952109624
201.525190649       9.5650854015
202.025253157       9.51645942251
202.525315664       9.3878282049
203.025378172       9.18664302699
203.52544068       8.92285134223
204.025503188       8.60794713263
204.525565696       8.25400096595
205.025628204       7.8728036227
205.525690711       7.47520812396
206.025753219       7.07070125701
206.525815727       6.66719184053
207.025878235       6.27097579078
207.525940743       5.88682735468
208.02600325       5.51816743319
208.526065758       5.16726841918
209.026128266       4.83546593899
209.526190774       4.52335838014
210.026253282       4.23098364705
210.526315789       3.95796880344
211.026378297       3.703652327
211.526440805       3.4671810658
212.026503313       3.24758513432
212.526565821       3.04383434278
213.026628329       2.8548796404
213.526690836       2.67968269565
214.026753344       2.51723628175
214.526815852       2.36657766845
215.02687836       2.22679678914
215.526940868       2.09704057647
216.027003375       1.97651454464
216.527065883       1.86448244084
217.027128391       1.76026458495
217.527190899       1.66323535699
218.027253407       1.57282016921
218.527315914       1.48849216579
219.027378422       1.40976882249
219.52744093       1.33620856539
220.027503438       1.26740748912
220.527565946       1.20299622593
221.027628454       1.14263699637
221.527690961       1.0860208574
222.027753469       1.03286515343
222.527815977       0.982911168578
223.027878485       0.935921973651
223.527940993       0.89168045839
224.0280035       0.849987537736
224.528066008       0.810660519973
225.028128516       0.773531624371
225.528191024       0.738446636102
226.028253532       0.705263686623
226.52831604       0.673852148372
227.028378547       0.644091633283
227.528441055       0.615871085423
228.028503563       0.589087958795
228.528566071       0.563647472118
229.028628579       0.539461933105
229.528691086       0.516450125445
230.028753594       0.494536752342
230.528816102       0.473651931019
231.02887861       0.453730733183
231.528941118       0.434712766884
232.029003625       0.416541795688
232.529066133       0.399165391484
233.029128641       0.382534617568
233.529191149       0.366603739053
234.029253657       0.351329957858
234.529316165       0.336673169872
235.029378672       0.322595742082
235.52944118       0.309062307662
236.029503688       0.29603957725
236.529566196       0.283496164757
237.029628704       0.271402426231
237.529691211       0.259730310435
238.029753719       0.248453219892
238.529816227       0.237545881273
239.029878735       0.226984224086
239.529941243       0.216745266715
240.03000375       0.2068070089
240.530066258       0.197148329835
241.030128766       0.187748891109
241.530191274       0.178589043723
242.030253782       0.16964973851
242.53031629       0.160912439237
243.030378797       0.15235903776
243.530441305       0.143971770551
244.030503813       0.135733135974
244.530566321       0.127625811639
245.030628829       0.119632571188
245.530691336       0.111736199837
246.030753844       0.103919407969
246.530816352       0.0961647420548
247.03087886       0.0884544921415
247.530941368       0.0807705950823
248.031003875       0.0730945326595
248.531066383       0.0654072236682
249.031128891       0.0576889089714
249.531191399       0.0499190284583
250.031253907       0.0420760887579
250.531316415       0.0341375204714
251.031378922       0.0260795235974
251.53144143       0.0178768997334
252.031503938       0.00950286954817
252.531566446       0.000928873946699
253.031628954       -0.00787564271361
253.531691461       -0.0169434690183
254.031753969       -0.0263098841468
254.531816477       -0.0360129383263
255.031878985       -0.046093757439
255.531941493       -0.056596872785
256.032004001       -0.0675705764494
256.532066508       -0.0790673018847
257.032129016       -0.0911440280878
257.532191524       -0.103862703994
258.032254032       -0.117290687238
258.53231654       -0.13150118801
259.032379047       -0.146573704051
259.532441555       -0.162594426475
260.032504063       -0.179656587626
260.532566571       -0.197860710837
261.032629079       -0.217314707128
261.532691586       -0.238133744562
262.032754094       -0.260439791193
262.532816602       -0.28436070125
263.03287911       -0.310028675488
263.532941618       -0.337577879926
