#  x                 y             frequency           rot. str.
0.0      -0.00591247574192      35.99      1.89
0.500062507813      -0.00419553223784      47.39      -1.05
1.00012501563      -0.00239652050824      64.65      1.55
1.50018752344      -0.000510859723497      86.22      -1.44
2.00025003125      0.00146634186602      164.75      0.95
2.50031253907      0.00354031183525      208.44      4.50
3.00037504688      0.0057166407728      238.89      -79.64
3.50043755469      0.00800131198528      287.37      19.15
4.00050006251      0.0104007339765      323.39      1.69
4.50056257032      0.0129217759888      339.03      6.08
5.00062507813      0.0155718069268      376.78      -9.98
5.50068758595      0.0183587380175      418.01      -7.23
6.00075009376      0.0212910696035      424.24      -3.64
6.50081260158      0.0243779425078      435.43      10.62
7.00087510939      0.0276291944594      478.54      -31.48
7.5009376172      0.0310554221238      508.48      13.10
8.00100012502      0.0346680493433      552.75      53.11
8.50106263283      0.0384794022583      601.04      -132.93
9.00112514064      0.0425027920584      639.33      10.49
9.50118764846      0.0467526061899      660.24      0.82
10.0012501563      0.0512444089411      724.35      2.35
10.5013126641      0.0559950524193      742.96      25.40
11.0013751719      0.0610227990466      761.20      -23.63
11.5014376797      0.0663474568088      819.63      11.84
12.0015001875      0.0719905286183      833.06      54.12
12.5015626953      0.0779753772762      852.56      42.18
13.0016252032      0.08432740765      874.96      -22.14
13.501687711      0.0910742678126      895.82      33.95
14.0017502188      0.0982460710117      929.95      2.23
14.5018127266      0.105875640447      947.47      -2.34
15.0018752344      0.113998778918      965.43      1.90
15.5019377422      0.122654565436      1003.61      2.45
16.00200025      0.13188568089      1036.76      -0.25
16.5020627578      0.141738764704      1119.08      -81.22
17.0021252657      0.152264804186      1127.47      24.02
17.5021877735      0.163519557806      1141.94      -81.29
18.0022502813      0.175564012897      1179.72      28.86
18.5023127891      0.188464877171      1193.29      -81.69
19.0023752969      0.202295101803      1200.24      5.78
19.5024378047      0.217134431513      1230.41      3.34
20.0025003125      0.233069973768      1246.05      7.20
20.5025628204      0.250196774717      1288.25      22.61
21.0026253282      0.26861838321      1296.39      2.73
21.502687836      0.288447375846      1337.85      -13.59
22.0027503438      0.309805804647      1357.72      1.04
22.5028128516      0.332825513961      1368.41      -10.24
23.0028753594      0.357648253347      1380.08      -21.43
23.5029378672      0.38442548748      1403.55      1.34
24.003000375      0.413317771013      1476.44      -5.39
24.5030628829      0.444493514409      1487.02      2.77
25.0031253907      0.478126914827      1551.82      8.11
25.5031878985      0.514394763195      1634.37      -8.14
26.0032504063      0.553471765068      1659.12      -2.63
26.5033129141      0.595523931223      1668.99      38.11
27.0033754219      0.640699510274      1811.58      98.15
27.5034379297      0.68911686236      3031.54      4.21
28.0035004376      0.740848631356      3063.25      6.73
28.5035629454      0.795901597408      3105.99      1.08
29.0036254532      0.854191732309      3151.91      2.30
29.503687961      0.915514306292      3173.13      -2.70
30.0037504688      0.979509490033      3176.52      4.09
30.5038129766      1.04562484648      3196.37      -2.39
31.0038754844      1.11307747226      3486.06      -5.48
31.5039379922      1.18082030696      3554.93      4.43
32.0040005001      1.24751910519      3720.47      0.52
32.5040630079      1.31154834797      3799.98      7.39
33.0041255157       1.3710152619
33.5041880235       1.42382019829
34.0042505313       1.46775801194
34.5043130391       1.50065837725
35.0043755469       1.52055385402
35.5044380548       1.52585504279
36.0045005626       1.51550555099
36.5045630704       1.48908893454
37.0046255782       1.44686687191
37.504688086       1.38974130966
38.0047505938       1.31914919958
38.5048131016       1.23691165135
39.0048756095       1.14506598016
39.5049381173       1.0457081419
40.0050006251       0.940866121685
40.5050631329       0.832415194455
41.0051256407       0.72203672666
41.5051881485       0.611215281808
42.0052506563       0.501264773329
42.5053131641       0.393372811967
43.005375672       0.28865234514
43.5054381798       0.188190393601
44.0055006876       0.0930847369067
44.5055631954       0.00446080373225
45.0056257032       -0.0765368564242
45.505688211       -0.148780859392
46.0057507188       -0.211222735907
46.5058132267       -0.262972301873
47.0058757345       -0.303381567197
47.5059382423       -0.332116946771
48.0060007501       -0.34920409203
48.5060632579       -0.355034490458
49.0061257657       -0.35033102061
49.5061882735       -0.336078455956
50.0062507813       -0.313431693958
50.5063132892       -0.283617367118
51.006375797       -0.247843214249
51.5064383048       -0.207225356321
52.0065008126       -0.162738297483
52.5065633204       -0.115187717425
53.0066258282       -0.0652028842605
53.506688336       -0.0132439886893
54.0067508439       0.0403804384217
54.5068133517       0.0954901296318
55.0068758595       0.152006691853
55.5069383673       0.209926056361
56.0070008751       0.269290608117
56.5070633829       0.330161091247
57.0071258907       0.392587913081
57.5071883985       0.456581261457
58.0072509064       0.52207951201
58.5073134142       0.588915754589
59.007375922       0.656782946938
59.5074384298       0.725199242819
60.0075009376       0.793476432763
60.5075634454       0.860696071313
61.0076259532       0.925699467817
61.5076884611       0.987098787883
62.0077509689       1.04331633899
62.5078134767       1.09265692653
63.0078759845       1.13341346688
63.5079384923       1.16399906054
64.0080010001       1.18309079731
64.5080635079       1.18976408913
65.0081260158       1.18359407003
65.5081885236       1.16470442525
66.0082510314       1.13375366311
66.5083135392       1.09186166102
67.008376047       1.04049121958
67.5084385548       0.981306681276
68.0085010626       0.916032745828
68.5085635704       0.846332213346
69.0086260783       0.773713928255
69.5086885861       0.699474422063
70.0087510939       0.624670646538
70.5088136017       0.550117579817
71.0088761095       0.476403232345
71.5089386173       0.403914009688
72.0090011251       0.332864732064
72.509063633       0.263329239441
73.0091261408       0.19526903059
73.5091886486       0.12855860792
74.0092511564       0.0630070849344
74.5093136642       -0.00162380266682
75.009376172       -0.0656047889321
75.5094386798       -0.129226587332
76.0095011876       -0.192789040825
76.5095636955       -0.256591098786
77.0096262033       -0.32092079897
77.5096887111       -0.38604443945
78.0097512189       -0.452194148417
78.5098137267       -0.519553114029
79.0098762345       -0.588237852118
79.5099387423       -0.658277111982
80.0100012502       -0.729587409832
80.510063758       -0.801945803312
81.0101262658       -0.874961438222
81.5101887736       -0.948048628377
82.0102512814       -1.02040569934
82.5103137892       -1.09100531073
83.010376297       -1.15860303753
83.5104388049       -1.22177100185
84.0105013127       -1.27896158067
84.5105638205       -1.32860215222
85.0106263283       -1.36921557933
85.5106888361       -1.39955375469
86.0107513439       -1.4187251728
86.5108138517       -1.42629473031
87.0108763595       -1.42233670443
87.5109388674       -1.40743019205
88.0110013752       -1.38259800878
88.511063883       -1.34920144272
89.0111263908       -1.30881077196
89.5111888986       -1.26307323864
90.0112514064       -1.21359665786
90.5113139142       -1.16186013698
91.0113764221       -1.10915606608
91.5114389299       -1.05656158763
92.0115014377       -1.00493407716
92.5115639455       -0.954923731768
93.0116264533       -0.906996590305
93.5116889611       -0.861462473337
94.0117514689       -0.818503826329
94.5118139767       -0.778202876402
95.0118764846       -0.740565675739
95.5119389924       -0.70554244805
96.0120015002       -0.673044205524
96.512064008       -0.64295592355
97.0121265158       -0.615146715362
97.5121890236       -0.589477496339
98.0122515314       -0.565806611713
98.5123140393       -0.543993852542
99.0123765471       -0.523903222686
99.5124390549       -0.505404755979
100.012501563       -0.488375623981
100.512564071       -0.472700723539
101.012626578       -0.458272890646
101.512689086       -0.444992852273
102.012751594       -0.432769000237
102.512814102       -0.421517049502
103.01287661       -0.411159626632
103.512939117       -0.401625821383
104.013001625       -0.392850724795
104.513064133       -0.384774969982
105.013126641       -0.377344286489
105.513189149       -0.370509075185
106.013251656       -0.364224007869
106.513314164       -0.358447653712
107.013376672       -0.353142133274
107.51343918       -0.348272799862
108.013501688       -0.343807947332
108.513564196       -0.339718543041
109.013626703       -0.335977984435
109.513689211       -0.332561877585
110.013751719       -0.329447836023
110.513814227       -0.326615298187
111.013876735       -0.324045361872
111.513939242       -0.321720634184
112.01400175       -0.319625095548
112.514064258       -0.317743976463
113.014126766       -0.316063645786
113.514189274       -0.314571509415
114.014251781       -0.313255918374
114.514314289       -0.312106085358
115.014376797       -0.311112008905
115.514439305       -0.31026440444
116.014501813       -0.309554641493
116.514564321       -0.308974686486
117.014626828       -0.308517050516
117.514689336       -0.308174741637
118.014751844       -0.307941221188
118.514814352       -0.307810363749
119.01487686       -0.307776420353
119.514939367       -0.30783398463
120.015001875       -0.307977961567
120.515064383       -0.308203538609
121.015126891       -0.308506158865
121.515189399       -0.308881496163
122.015251906       -0.309325431781
122.515314414       -0.309834032625
123.015376922       -0.310403530715
123.51543943       -0.311030303784
124.015501938       -0.311710856864
124.515564446       -0.312441804698
125.015626953       -0.313219854863
125.515689461       -0.314041791463
126.015751969       -0.314904459285
126.515814477       -0.315804748288
127.015876985       -0.316739578327
127.515939492       -0.31770588399
128.016002       -0.318700599447
128.516064508       -0.319720643195
129.016127016       -0.320762902588
129.516189524       -0.321824218047
130.016252032       -0.322901366819
130.516314539       -0.323991046174
131.016377047       -0.325089855909
131.516439555       -0.326194280017
132.016502063       -0.327300667385
132.516564571       -0.328405211363
133.016627078       -0.329503928026
133.516689586       -0.330592632967
134.016752094       -0.331666916405
134.516814602       -0.332722116398
135.01687711       -0.333753289928
135.516939617       -0.334755181591
136.017002125       -0.335722189606
136.517064633       -0.336648328833
137.017127141       -0.337527190441
137.517189649       -0.338351897846
138.017252157       -0.339115058494
138.517314664       -0.339808711013
139.017377172       -0.34042426722
139.51743968       -0.340952448399
140.017502188       -0.341383215233
140.517564696       -0.341705690686
141.017627203       -0.341908075079
141.517689711       -0.341977552529
142.017752219       -0.34190018786
142.517814727       -0.341660813015
143.017877235       -0.341242901934
143.517939742       -0.34062843283
144.01800225       -0.339797736712
144.518064758       -0.338729331042
145.018127266       -0.337399737407
145.518189774       -0.335783282179
146.018252282       -0.333851879302
146.518314789       -0.331574794644
147.018377297       -0.328918391766
147.518439805       -0.325845859659
148.018502313       -0.32231692396
148.518564821       -0.318287544521
149.018627328       -0.313709604176
149.518689836       -0.308530596181
150.018752344       -0.302693321457
150.518814852       -0.296135611658
151.01887736       -0.28879010067
151.518939867       -0.280584075796
152.019002375       -0.271439451288
152.519064883       -0.261272921542
153.019127391       -0.249996370126
153.519189899       -0.237517634256
154.019252407       -0.223741753316
154.519314914       -0.208572864325
155.019377422       -0.191916946612
155.51943993       -0.173685659991
156.019502438       -0.153801561159
156.519564946       -0.132205013396
157.019627453       -0.108863111291
157.519689961       -0.083780903858
158.019752469       -0.0570150860265
158.519814977       -0.0286901011545
159.019877485       0.00098378808975
159.519939992       0.0316914852052
160.0200025       0.0629949182831
160.520065008       0.0943185444841
161.020127516       0.124942250189
161.520190024       0.154006113119
162.020252532       0.180531533589
162.520315039       0.203462130254
163.020377547       0.221725176869
163.520440055       0.234310272193
164.020502563       0.240357076137
164.520565071       0.239239688625
165.020627578       0.230633298222
165.520690086       0.214550382499
166.020752594       0.191339109175
166.520815102       0.16164427058
167.02087761       0.126338660325
167.520940118       0.0864378954673
168.021002625       0.0430130211824
168.521065133       -0.00288696472391
169.021127641       -0.0502949003879
169.521190149       -0.0983646334867
170.021252657       -0.146390631587
170.521315164       -0.193811569894
171.021377672       -0.240202437193
171.52144018       -0.285259586149
172.021502688       -0.328782401925
172.521565196       -0.370654279635
173.021627703       -0.4108246543
173.521690211       -0.449293051736
174.021752719       -0.486095563928
174.521815227       -0.521293781731
175.021877735       -0.554966001426
175.521940243       -0.587200415732
176.02200275       -0.618089966216
176.522065258       -0.647728543231
177.022127766       -0.676208251106
177.522190274       -0.703617497005
178.022252782       -0.730039703777
178.522315289       -0.755552485967
179.022377797       -0.78022716199
179.522440305       -0.80412850379
180.022502813       -0.827314648306
180.522565321       -0.849837113308
181.022627828       -0.871740874447
181.522690336       -0.893064471271
182.022752844       -0.913840118281
182.522815352       -0.934093803266
183.02287786       -0.953845359727
183.522940368       -0.97310850347
184.023002875       -0.991890825798
184.523065383       -1.01019373728
185.023127891       -1.02801235718
185.523190399       -1.04533534411
186.023252907       -1.0621446641
186.523315414       -1.07841529201
187.023377922       -1.09411484256
187.52344043       -1.10920312714
188.023502938       -1.12363163237
188.523565446       -1.13734291678
189.023627953       -1.15026992204
189.523690461       -1.1623351959
190.023752969       -1.17345002509
190.523815477       -1.18351347826
191.023877985       -1.19241136161
191.523940493       -1.20001509396
192.024003       -1.20618051377
192.524065508       -1.21074663871
193.024128016       -1.21353440952
193.524190524       -1.21434546541
194.024253032       -1.21296101909
194.524315539       -1.20914092738
195.024378047       -1.20262309074
195.524440555       -1.19312336384
196.024503063       -1.18033622265
196.524565571       -1.16393651544
197.024628079       -1.14358272757
197.524690586       -1.11892231774
198.024753094       -1.08959983656
198.524815602       -1.05526871689
199.02487811       -1.01560782187
199.524940618       -0.970344034318
200.025003125       -0.919282339148
200.525065633       -0.862344932998
201.025128141       -0.799620807084
201.525190649       -0.731426862912
202.025253157       -0.658380767026
202.525315664       -0.581484226668
203.025378172       -0.50221297194
203.52544068       -0.42260634021
204.025503188       -0.345345065732
204.525565696       -0.273801169813
205.025628204       -0.212039800313
205.525690711       -0.164751234205
206.025753219       -0.137094257914
206.525815727       -0.134441804312
207.025878235       -0.162036709894
207.525940743       -0.224587720958
208.02600325       -0.325858013903
208.526065758       -0.468312670372
209.026128266       -0.652890436779
209.526190774       -0.878945766886
210.026253282       -1.14437363296
210.526315789       -1.44589207146
211.026378297       -1.77942789831
211.526440805       -2.14053788946
212.026503313       -2.52480250626
212.526565821       -2.92814709577
213.026628329       -3.34706848365
213.526690836       -3.77876576863
214.026753344       -4.22118866474
214.526815852       -4.67302394005
215.02687836       -5.13364165127
215.526940868       -5.60302017768
216.027003375       -6.08166462472
216.527065883       -6.57052851991
217.027128391       -7.07094471597
217.527190899       -7.58456837633
218.027253407       -8.11333284552
218.527315914       -8.65941793854
219.027378422       -9.22522951087
219.52744093       -9.81338889803
220.027503438       -10.4267307841
220.527565946       -11.068308157
221.027628454       -11.7414031587
221.527690961       -12.4495427867
222.027753469       -13.1965185208
222.527815977       -13.986409014
223.027878485       -14.8236049821
223.527940993       -15.712835338
224.0280035       -16.659193432
224.528066008       -17.6681619537
225.028128516       -18.7456345974
225.528191024       -19.8979319614
226.028253532       -21.1318082965
226.52831604       -22.454444589
227.028378547       -23.8734220046
227.528441055       -25.3966678678
228.028503563       -27.0323640636
228.528566071       -28.7888049872
229.028628579       -30.6741889798
229.528691086       -32.6963236947
230.028753594       -34.8622223691
230.528816102       -37.1775651186
231.02887861       -39.6459981544
231.528941118       -42.2682458397
232.029003625       -45.0410180778
232.529066133       -47.9557117298
233.029128641       -50.9969332526
233.529191149       -54.1409139863
234.029253657       -57.3539514253
234.529316165       -60.5910871433
235.029378672       -63.795315242
235.52944118       -66.8976839153
236.029503688       -69.8186748063
236.529566196       -72.4711805446
237.029628704       -74.7652157892
237.529691211       -76.6141837149
238.029753719       -77.942120472
238.529816227       -78.6909565345
239.029878735       -78.8266066926
239.529941243       -78.3427543223
240.03000375       -77.2615704586
240.530066258       -75.6312190016
241.030128766       -73.5206580557
241.530191274       -71.0127441151
242.030253782       -68.1968432542
242.53031629       -65.1620383037
243.030378797       -61.9916883336
243.530441305       -58.7596885777
244.030503813       -55.528418863
244.530566321       -52.3481254604
245.030628829       -49.2573669958
245.530691336       -46.284144078
246.030753844       -43.4473850781
246.530816352       -40.7585405328
247.03087886       -38.2231203211
247.530941368       -35.8420770874
248.031003875       -33.6129913528
248.531066383       -31.5310488001
249.031128891       -29.589821379
249.531191399       -27.7818748318
250.031253907       -26.099229373
250.531316415       -24.5337002264
251.031378922       -23.0771424321
251.53144143       -21.7216210339
252.031503938       -20.4595242251
252.531566446       -19.2836336721
253.031628954       -18.1871632758
253.531691461       -17.163775123
254.031753969       -16.2075793319
254.531816477       -15.3131228511
255.031878985       -14.4753709844
255.531941493       -13.6896844136
256.032004001       -12.9517937242
256.532066508       -12.2577728653
257.032129016       -11.604012535
257.532191524       -10.9871941647
258.032254032       -10.4042649373
258.53231654       -9.85241409979
259.032379047       -9.32905071269
259.532441555       -8.8317828839
260.032504063       -8.35839848024
260.532566571       -7.9068472649
261.032629079       -7.47522438386
