#  x                 y             frequency           rot. str.
0.0      0.590502814306      38.26      14.37
0.500062507813      0.607526526851      53.60      13.27
1.00012501563      0.625208709794      65.08      -12.42
1.50018752344      0.643582359089      86.17      -5.13
2.00025003125      0.662682514876      166.77      1.87
2.50031253907      0.682546412286      206.62      -6.86
3.00037504688      0.703213645099      228.17      -76.67
3.50043755469      0.724726343499      289.49      9.20
4.00050006251      0.747129367291      325.28      28.14
4.50056257032      0.770470516078      344.33      7.78
5.00062507813      0.794800758097      376.85      7.04
5.50068758595      0.82017447954      417.54      18.93
6.00075009376      0.846649756434      423.54      -12.20
6.50081260158      0.874288651354      434.74      -11.61
7.00087510939      0.90315753749      475.31      27.25
7.5009376172      0.933327452889      496.81      -40.34
8.00100012502      0.964874487976      514.53      25.56
8.50106263283      0.997880209822      574.35      -75.56
9.00112514064      1.03243212701      624.16      33.34
9.50118764846      1.06862419936      659.95      -3.35
10.0012501563      1.10655739728      727.13      -3.90
10.5013126641      1.14634031597      737.73      10.23
11.0013751719      1.18808985043      768.49      -1.07
11.5014376797      1.23193193764      821.96      -3.85
12.0015001875      1.27800237323      832.02      38.35
12.5015626953      1.32644771053      852.91      33.80
13.0016252032      1.37742625088      873.92      0.19
13.501687711      1.43110913489      896.69      20.07
14.0017502188      1.48768154535      928.43      16.33
14.5018127266      1.54734403362      954.73      -0.04
15.0018752344      1.61031398212      964.29      0.99
15.5019377422      1.67682721712      995.77      -25.01
16.00200025      1.74713978663      1036.28      -0.10
16.5020627578      1.82152991955      1120.64      -6.96
17.0021252657      1.90030018311      1129.61      21.82
17.5021877735      1.98377985605      1143.36      -36.08
18.0022502813      2.07232753575      1180.70      29.84
18.5023127891      2.16633399671      1193.15      -61.65
19.0023752969      2.26622531706      1203.07      -2.22
19.5024378047      2.37246628737      1229.88      5.40
20.0025003125      2.48556411167      1240.96      26.22
20.5025628204      2.60607240458      1274.23      -83.64
21.0026253282      2.73459547841      1291.50      52.31
21.502687836      2.87179289986      1329.69      -75.50
22.0027503438      3.01838427571      1356.04      -9.85
22.5028128516      3.17515419838      1370.14      -7.85
23.0028753594      3.3429572426      1376.61      -11.25
23.5029378672      3.5227228508      1406.34      2.26
24.003000375      3.71545987189      1475.11      -8.96
24.5030628829      3.92226042072      1487.28      1.38
25.0031253907      4.14430259624      1552.96      7.23
25.5031878985      4.38285142749      1634.99      -11.63
26.0032504063      4.6392571969      1659.24      0.64
26.5033129141      4.91495001081      1669.25      37.80
27.0033754219      5.21142913507      1845.50      93.25
27.5034379297      5.53024518193      3000.26      -1.62
28.0035004376      5.87297271887      3035.77      16.80
28.5035629454      6.24117027968      3090.21      2.63
29.0036254532      6.63632412324      3155.07      0.85
29.503687961      7.05977147161      3173.15      -2.26
30.0037504688      7.51259848782      3176.43      3.72
30.5038129766      7.99550812941      3197.29      -2.16
31.0038754844      8.50865354951      3485.69      -6.62
31.5039379922      9.05143436108      3553.73      5.66
32.0040005001      9.62225641459      3768.89      2.53
32.5040630079      10.2182614285      3798.46      7.92
33.0041255157       10.8350414534
33.5041880235       11.4663649713
34.0042505313       12.1039558083
34.5043130391       12.7373808784
35.0043755469       13.3541139537
35.5044380548       13.9398439752
36.0045005626       14.4790806581
36.5045630704       14.9560717492
37.0046255782       15.3559854848
37.504688086       15.6662384455
38.0047505938       15.8777834926
38.5048131016       15.9861405492
39.0048756095       15.9919749214
39.5049381173       15.9011063953
40.0050006251       15.7239474814
40.5050631329       15.4744846963
41.0051256407       15.1689962601
41.5051881485       14.8247225832
42.0052506563       14.4586747192
42.5053131641       14.0867005601
43.005375672       13.7228547226
43.5054381798       13.3790563731
44.0055006876       13.0649797946
44.5055631954       12.7881057284
45.0056257032       12.5538620207
45.505688211       12.3657927965
46.0057507188       12.2257102394
46.5058132267       12.1337982515
47.0058757345       12.0886511109
47.5059382423       12.0872426745
48.0060007501       12.1248335159
48.5060632579       12.1948357086
49.0061257657       12.2886684576
49.5061882735       12.3956520714
50.0062507813       12.5030008154
50.5063132892       12.5959828565
51.006375797       12.6583117998
51.5064383048       12.6728128508
52.0065008126       12.6223636259
52.5065633204       12.4910478897
53.0066258282       12.265392453
53.506688336       11.935504348
54.0067508439       11.4959106561
54.5068133517       10.9459415084
55.0068758595       10.2895836085
55.5069383673       9.53484257591
56.0070008751       8.69275211402
56.5070633829       7.77622618726
57.0071258907       6.79895470417
57.5071883985       5.77450181772
58.0072509064       4.71570005633
58.5073134142       3.63436579983
59.007375922       2.54130766549
59.5074384298       1.44656474749
60.0075009376       0.359794071043
60.5075634454       -0.709279852757
61.0076259532       -1.75044148214
61.5076884611       -2.7526731211
62.0077509689       -3.70403717816
62.5078134767       -4.59181917295
63.0078759845       -5.40297133634
63.5079384923       -6.12485143697
64.0080010001       -6.74619090469
64.5080635079       -7.25816182795
65.0081260158       -7.65536360859
65.5081885236       -7.93653838603
66.0082510314       -8.10486254532
66.5083135392       -8.16774474056
67.008376047       -8.13616515875
67.5084385548       -8.02368299358
68.0085010626       -7.8452915387
68.5085635704       -7.61630236517
69.0086260783       -7.35140029375
69.5086885861       -7.06394972435
70.0087510939       -6.76557186713
70.5088136017       -6.46596621652
71.0088761095       -6.17292360742
71.5089386173       -5.89247042417
72.0090011251       -5.62908835149
72.509063633       -5.38596534568
73.0091261408       -5.16524648336
73.5091886486       -4.968265096
74.0092511564       -4.79574381227
74.5093136642       -4.64796157799
75.009376172       -4.52488674744
75.5094386798       -4.42627849809
76.0095011876       -4.35175967156
76.5095636955       -4.30086415756
77.0096262033       -4.27306147318
77.5096887111       -4.26776050987
78.0097512189       -4.28429372202
78.5098137267       -4.32188248004
79.0098762345       -4.3795840728
79.5099387423       -4.456221107
80.0100012502       -4.55029503363
80.510063758       -4.65988746747
81.0101262658       -4.78255604443
81.5101887736       -4.91523581223
82.0102512814       -5.05416225752
82.5103137892       -5.19483715607
83.010376297       -5.33206186272
83.5104388049       -5.46006210072
84.0105013127       -5.57272120512
84.5105638205       -5.66392340867
85.0106263283       -5.72798577746
85.5106888361       -5.76013108377
86.0107513439       -5.75693210164
86.5108138517       -5.71664969226
87.0108763595       -5.63939894239
87.5109388674       -5.52710898264
88.0110013752       -5.38328437368
88.511063883       -5.21261566663
89.0111263908       -5.02051163577
89.5111888986       -4.81262995348
90.0112514064       -4.59446901869
90.5113139142       -4.37105915495
91.0113764221       -4.14676556111
91.5114389299       -3.92519492148
92.0115014377       -3.70918533508
92.5115639455       -3.50085481658
93.0116264533       -3.30168487857
93.5116889611       -3.11262005912
94.0117514689       -2.93416961125
94.5118139767       -2.76650258409
95.0118764846       -2.60953155613
95.5119389924       -2.46298317501
96.0120015002       -2.32645552868
96.512064008       -2.19946344388
97.0121265158       -2.08147331336
97.5121890236       -1.97192919455
98.0122515314       -1.8702718498
98.5123140393       -1.77595221741
99.0123765471       -1.68844057964
99.5124390549       -1.60723246862
100.012501563       -1.53185214463
100.512564071       -1.46185430184
101.012626578       -1.39682450773
101.512689086       -1.33637876124
102.012751594       -1.28016245881
102.512814102       -1.22784898246
103.01287661       -1.17913806625
103.512939117       -1.13375405348
104.013001625       -1.09144412402
104.513064133       -1.05197654603
105.013126641       -1.01513898854
105.513189149       -0.980736917648
106.013251656       -0.948592089531
106.513314164       -0.918541146782
107.013376672       -0.890434319536
107.51343918       -0.864134229763
108.013501688       -0.839514794871
108.513564196       -0.816460225461
109.013626703       -0.794864111294
109.513689211       -0.774628589176
110.013751719       -0.755663586442
110.513814227       -0.737886133778
111.013876735       -0.721219741449
111.513939242       -0.705593833258
112.01400175       -0.69094323299
112.514064258       -0.677207698442
113.014126766       -0.66433149856
113.514189274       -0.652263029556
114.014251781       -0.640954466277
114.514314289       -0.630361445395
115.014376797       -0.620442777356
115.514439305       -0.61116018428
116.014501813       -0.60247806128
116.514564321       -0.594363258949
117.014626828       -0.58678488493
117.514689336       -0.579714122735
118.014751844       -0.573124066137
118.514814352       -0.566989567631
119.01487686       -0.561287099606
119.514939367       -0.555994626998
120.015001875       -0.551091490331
120.515064383       -0.546558298131
121.015126891       -0.54237682783
121.515189399       -0.538529934312
122.015251906       -0.535001465401
122.515314414       -0.531776183572
123.015376922       -0.528839693313
123.51543943       -0.526178373547
124.015501938       -0.523779314629
124.515564446       -0.521630259429
125.015626953       -0.519719548085
125.515689461       -0.518036066024
126.015751969       -0.516569194879
126.515814477       -0.515308765963
127.015876985       -0.51424501598
127.515939492       -0.513368544666
128.016002       -0.512670274075
128.516064508       -0.512141409236
129.016127016       -0.511773399921
129.516189524       -0.511557903255
130.016252032       -0.511486746932
130.516314539       -0.511551892779
131.016377047       -0.511745400417
131.516439555       -0.512059390781
132.016502063       -0.512486009226
132.516564571       -0.513017387967
133.016627078       -0.513645607583
133.516689586       -0.514362657286
134.016752094       -0.515160393663
134.516814602       -0.516030497574
135.01687711       -0.516964428848
135.516939617       -0.517953378423
136.017002125       -0.518988217525
136.517064633       -0.520059443446
137.017127141       -0.521157121455
137.517189649       -0.522270822327
138.017252157       -0.523389554903
138.517314664       -0.524501693083
139.017377172       -0.52559489654
139.51743968       -0.526656024407
140.017502188       -0.527671041099
140.517564696       -0.528624913345
141.017627203       -0.529501497409
141.517689711       -0.530283415379
142.017752219       -0.530951919293
142.517814727       -0.531486741734
143.017877235       -0.531865931418
143.517939742       -0.532065672159
144.01800225       -0.53206008345
144.518064758       -0.531821000774
145.018127266       -0.531317733631
145.518189774       -0.530516799159
146.018252282       -0.529381629151
146.518314789       -0.527872248246
147.018377297       -0.525944921108
147.518439805       -0.523551766602
148.018502313       -0.520640337259
148.518564821       -0.517153162896
149.018627328       -0.513027258125
149.518689836       -0.508193594752
150.018752344       -0.502576541992
150.518814852       -0.49609328008
151.01887736       -0.488653196634
151.518939867       -0.480157280293
152.019002375       -0.470497533251
152.519064883       -0.459556433827
153.019127391       -0.447206493011
153.519189899       -0.433309965805
154.019252407       -0.417718800352
154.519314914       -0.400274936498
155.019377422       -0.380811102067
155.51943993       -0.359152301053
156.019502438       -0.335118244399
156.519564946       -0.308527041284
157.019627453       -0.279200545878
157.519689961       -0.246971837274
158.019752469       -0.211695390205
158.519814977       -0.173260555168
159.019877485       -0.131608982186
159.519939992       -0.0867565514287
160.0200025       -0.0388201579281
160.520065008       0.0119507393536
161.020127516       0.0651386384205
161.520190024       0.120120548839
162.020252532       0.17603208687
162.520315039       0.23173849182
163.020377547       0.285819873469
163.520440055       0.336579445343
164.020502563       0.382083649423
164.520565071       0.420240995398
165.020627578       0.44892140514
165.520690086       0.466109910923
166.020752594       0.470079007795
166.520815102       0.459555471454
167.02087761       0.433853377176
167.520940118       0.392948009375
168.021002625       0.337475660942
168.521065133       0.268659348889
169.021127641       0.18817549147
169.521190149       0.0979868794694
170.021252657       0.000170202421108
170.521315164       -0.103237705634
171.021377672       -0.210359234452
171.52144018       -0.319554860122
172.021502688       -0.429463315731
172.521565196       -0.539009906053
173.021627703       -0.64739187565
173.521690211       -0.75404958308
174.021752719       -0.858630786222
174.521815227       -0.960953414051
175.021877735       -1.06097032731
175.521940243       -1.15873802887
176.02200275       -1.25439015665
176.522065258       -1.3481158488
177.022127766       -1.44014263502
177.522190274       -1.53072329242
178.022252782       -1.62012603436
178.522315289       -1.70862741637
179.022377797       -1.79650740495
179.522440305       -1.88404613515
180.022502813       -1.97152196587
180.522565321       -2.05921051938
181.022627828       -2.14738445904
181.522690336       -2.23631381611
182.022752844       -2.32626672296
182.522815352       -2.41751044712
183.02287786       -2.51031264969
183.522940368       -2.60494281459
184.023002875       -2.70167381224
184.523065383       -2.80078357503
185.023127891       -2.90255687163
185.523190399       -3.00728717514
186.023252907       -3.11527862528
186.523315414       -3.2268480889
187.023377922       -3.34232732572
187.52344043       -3.46206526734
188.023502938       -3.58643041775
188.523565446       -3.7158133824
189.023627953       -3.85062952973
189.523690461       -3.99132178488
190.023752969       -4.13836354736
190.523815477       -4.29226171448
191.023877985       -4.45355977703
191.523940493       -4.62284093318
192.024003       -4.80073113865
192.524065508       -4.98790197274
193.024128016       -5.18507314951
193.524190524       -5.39301443616
194.024253032       -5.61254665311
194.524315539       -5.84454131726
195.024378047       -6.08991834636
195.524440555       -6.34964106306
196.024503063       -6.62470751863
196.524565571       -6.91613689914
197.024628079       -7.2249494864
197.524690586       -7.55213834295
198.024753094       -7.89863061234
198.524815602       -8.26523614293
199.02487811       -8.65258116784
199.524940618       -9.06102517482
200.025003125       -9.49056011398
200.525065633       -9.94069301204
201.025128141       -10.4103162085
201.525190649       -10.8975740483
202.025253157       -11.3997409666
202.525315664       -11.913132989
203.025378172       -12.4330814665
203.52544068       -12.9540020511
204.025503188       -13.4695903027
204.525565696       -13.9731645226
205.025628204       -14.4581544425
205.525690711       -14.9187026811
206.025753219       -15.3503108247
206.525815727       -15.7504345569
207.025878235       -16.1189245751
207.525940743       -16.4582296167
208.02600325       -16.7733226103
208.526065758       -17.0713681091
209.026128266       -17.3612004923
209.526190774       -17.652712303
210.026253282       -17.9562542097
210.526315789       -18.2821267263
211.026378297       -18.6402101238
211.526440805       -19.0397448671
212.026503313       -19.4892487299
212.526565821       -19.9965416654
213.026628329       -20.5688445669
213.526690836       -21.2129201461
214.026753344       -21.9352298803
214.526815852       -22.7420875937
215.02687836       -23.6397960712
215.526940868       -24.6347573323
216.027003375       -25.7335496305
216.527065883       -26.9429650083
217.027128391       -28.2700005807
217.527190899       -29.7217949098
218.027253407       -31.3054981203
218.527315914       -33.0280610585
219.027378422       -34.8959251362
219.52744093       -36.9145910234
220.027503438       -39.0880418424
220.527565946       -41.4179962051
221.027628454       -43.9029701637
221.527690961       -46.537137471
222.027753469       -49.3089977194
222.527815977       -52.1998954976
223.027878485       -55.1824835754
223.527940993       -58.2192897468
224.0280035       -61.261625509
224.528066008       -64.2491518062
225.028128516       -67.1104679821
225.528191024       -69.7650797479
226.028253532       -72.1269923177
226.52831604       -74.1099411777
227.028378547       -75.6339265942
227.528441055       -76.6323249751
228.028503563       -77.0585294825
228.528566071       -76.8909605377
229.028628579       -76.135475924
229.528691086       -74.8246876032
230.028753594       -73.014326272
230.528816102       -70.7773831911
231.02887861       -68.1971206639
231.528941118       -65.3600954072
232.029003625       -62.3501210778
232.529066133       -59.2437271725
233.029128641       -56.1072868662
233.529191149       -52.9956842898
234.029253657       -49.9522131825
234.529316165       -47.0093366302
235.029378672       -44.1899586569
235.52944118       -41.5089245115
236.029503688       -38.9745465752
236.529566196       -36.5900273133
237.029628704       -34.354710339
237.529691211       -32.2651333059
238.029753719       -30.3158838163
238.529816227       -28.5002751676
239.029878735       -26.8108660748
239.529941243       -25.2398504612
240.03000375       -23.7793422417
240.530066258       -22.4215772799
241.030128766       -21.1590513496
241.530191274       -19.9846095751
242.030253782       -18.8914997386
242.53031629       -17.8733991869
243.030378797       -16.9244228483
243.530441305       -16.0391180779
244.030503813       -15.2124506236
244.530566321       -14.4397848939
245.030628829       -13.7168608501
245.530691336       -13.0397691956
246.030753844       -12.4049260421
246.530816352       -11.8090478645
247.03087886       -11.2491272888
247.530941368       -10.7224100541
248.031003875       -10.226373352
248.531066383       -9.75870563965
249.031128891       -9.31728795551
249.531191399       -8.90017671546
250.031253907       -8.50558793601
250.531316415       -8.13188281076
251.031378922       -7.77755455499
251.53144143       -7.44121642745
252.031503938       -7.1215908376
252.531566446       -6.81749944786
253.031628954       -6.52785418409
253.531691461       -6.25164907211
254.031753969       -5.98795282336
254.531816477       -5.73590209837
255.031878985       -5.49469538222
255.531941493       -5.26358741167
256.032004001       -5.04188409887
256.532066508       -4.82893790124
257.032129016       -4.62414359178
257.532191524       -4.42693438823
258.032254032       -4.23677840318
258.53231654       -4.05317538063
259.032379047       -3.87565368771
259.532441555       -3.70376753288
260.032504063       -3.53709438438
260.532566571       -3.37523256498
261.032629079       -3.21779900066
261.532691586       -3.06442710287
262.032754094       -2.91476476507
262.532816602       -2.76847245567
263.03287911       -2.62522139035
263.532941618       -2.48469176746
264.033004126       -2.34657105113
