#  x                 y             frequency           rot. str.
0.0      -0.119052754461      35.97      1.02
0.500062507813      -0.121088177879      45.97      -1.61
1.00012501563      -0.123162731802      53.85      -3.43
1.50018752344      -0.125276977007      76.95      -8.13
2.00025003125      -0.127431446404      148.31      -1.87
2.50031253907      -0.129626639499      237.13      -0.02
3.00037504688      -0.131863016163      248.77      43.46
3.50043755469      -0.134140989609      286.03      0.75
4.00050006251      -0.13646091849      303.56      12.20
4.50056257032      -0.13882309801      330.21      5.32
5.00062507813      -0.141227749925      336.43      -0.42
5.50068758595      -0.143675011307      382.51      3.78
6.00075009376      -0.146164921912      421.70      -5.01
6.50081260158      -0.148697409991      431.36      4.88
7.00087510939      -0.151272276356      470.39      5.40
7.5009376172      -0.153889176478      525.37      -17.79
8.00100012502      -0.1565476004      556.05      0.51
8.50106263283      -0.159246850183      618.21      30.58
9.00112514064      -0.161986014603      641.09      -28.60
9.50118764846      -0.164763940754      660.13      1.48
10.0012501563      -0.16757920222      732.00      10.16
10.5013126641      -0.17043006338      766.72      39.94
11.0013751719      -0.17331443941      794.43      -22.44
11.5014376797      -0.176229851497      801.18      -35.07
12.0015001875      -0.17917337671      818.36      -1.44
12.5015626953      -0.182141591935      847.76      -47.09
13.0016252032      -0.18513051125      857.21      -5.07
13.501687711      -0.188135516045      869.36      -3.13
14.0017502188      -0.191151277156      925.01      0.47
14.5018127266      -0.194171668283      960.85      -7.00
15.0018752344      -0.197189669908      973.74      -11.02
15.5019377422      -0.200197262974      1023.93      24.76
16.00200025      -0.203185311649      1035.84      0.91
16.5020627578      -0.20614343458      1114.98      -16.38
17.0021252657      -0.209059864274      1125.10      -22.10
17.5021877735      -0.211921294531      1149.05      23.91
18.0022502813      -0.214712716327      1172.07      -24.55
18.5023127891      -0.21741724322      1191.92      -44.63
19.0023752969      -0.220015928331      1199.53      2.88
19.5024378047      -0.222487576313      1229.26      -39.49
20.0025003125      -0.224808555594      1236.37      -8.23
20.5025628204      -0.226952618799      1287.59      8.52
21.0026253282      -0.228890742738      1316.73      24.45
21.502687836      -0.2305910041      1326.34      -17.53
22.0027503438      -0.232018513277      1350.90      -18.40
22.5028128516      -0.233135437131      1362.66      -72.46
23.0028753594      -0.233901152409      1369.41      17.85
23.5029378672      -0.234272585758      1451.79      43.53
24.003000375      -0.234204814452      1474.86      -13.26
24.5030628829      -0.233652024919      1485.16      5.87
25.0031253907      -0.23256895458      1551.77      3.54
25.5031878985      -0.230912976817      1635.31      17.46
26.0032504063      -0.228647028867      1642.55      -34.85
26.5033129141      -0.225743626671      1659.76      -4.68
27.0033754219      -0.222190255669      1807.65      83.57
27.5034379297      -0.217996465489      3030.43      1.28
28.0035004376      -0.213203017475      3064.82      10.12
28.5035629454      -0.207893418305      3084.56      0.74
29.0036254532      -0.20220809275      3149.46      2.42
29.503687961      -0.196361266256      3167.51      2.05
30.0037504688      -0.190660297778      3169.60      -0.78
30.5038129766      -0.18552667854      3195.52      -1.75
31.0038754844      -0.18151716225      3482.93      2.46
31.5039379922      -0.17934253003      3564.20      -2.23
32.0040005001      -0.179880417635      3711.23      15.43
32.5040630079      -0.184177671186      3799.73      6.76
33.0041255157       -0.19343723133
33.5041880235       -0.208985071547
34.0042505313       -0.232214707723
34.5043130391       -0.264510447228
35.0043755469       -0.307155467657
35.5044380548       -0.361235857445
36.0045005626       -0.427555170864
36.5045630704       -0.506574137367
37.0046255782       -0.59838612079
37.504688086       -0.702731503528
38.0047505938       -0.819045590189
38.5048131016       -0.946527648532
39.0048756095       -1.08421541166
39.5049381173       -1.23105033015
40.0050006251       -1.38592317707
40.5050631329       -1.54769557682
41.0051256407       -1.71519900825
41.5051881485       -1.88721775544
42.0052506563       -2.06246569388
42.5053131641       -2.23956859446
43.005375672       -2.41706368849
43.5054381798       -2.59342626322
44.0055006876       -2.76712866347
44.5055631954       -2.93673016815
45.0056257032       -3.10098750414
45.505688211       -3.25896710439
46.0057507188       -3.41013437311
46.5058132267       -3.55439491455
47.0058757345       -3.69206923235
47.5059382423       -3.82379472958
48.0060007501       -3.95036359135
48.5060632579       -4.0725181285
49.0061257657       -4.19073325804
49.5061882735       -4.30501807592
50.0062507813       -4.41476605972
50.5063132892       -4.51867822196
51.006375797       -4.61477677884
51.5064383048       -4.70051853617
52.0065008126       -4.77300622366
52.5065633204       -4.82928176184
53.0066258282       -4.86666905828
53.506688336       -4.88311909454
54.0067508439       -4.87750229704
54.5068133517       -4.84979744351
55.0068758595       -4.80114406556
55.5069383673       -4.73375261195
56.0070008751       -4.65069539207
56.5070633829       -4.55562260629
57.0071258907       -4.45245590566
57.5071883985       -4.34510657333
58.0072509064       -4.23725084102
58.5073134142       -4.13217720196
59.007375922       -4.03270513565
59.5074384298       -3.94116430531
60.0075009376       -3.85941847174
60.5075634454       -3.78891795331
61.0076259532       -3.73076673968
61.5076884611       -3.68579377707
62.0077509689       -3.65462139474
62.5078134767       -3.63772674627
63.0078759845       -3.63549428552
63.5079384923       -3.64825870517
64.0080010001       -3.67633856331
64.5080635079       -3.72006116343
65.0081260158       -3.7797792724
65.5081885236       -3.85588006886
66.0082510314       -3.94878638245
66.5083135392       -4.05894986554
67.008376047       -4.18683526542
67.5084385548       -4.33289446647
68.0085010626       -4.49752848638
68.5085635704       -4.68103519502
69.0086260783       -4.88354027647
69.5086885861       -5.10490902306
70.0087510939       -5.34463715839
70.5088136017       -5.60172033265
71.0088761095       -5.87450458246
71.5089386173       -6.16052426156
72.0090011251       -6.45633996051
72.509063633       -6.75739660463
73.0091261408       -7.05793041374
73.5091886486       -7.35096084489
74.0092511564       -7.62840691569
74.5093136642       -7.88136242833
75.009376172       -8.10054785199
75.5094386798       -8.27692659517
76.0095011876       -8.40243348717
76.5095636955       -8.47072295196
77.0096262033       -8.47781761986
77.5096887111       -8.4225384426
78.0097512189       -8.30663063033
78.5098137267       -8.13455931342
79.0098762345       -7.91301679671
79.5099387423       -7.65023786788
80.0100012502       -7.35524511887
80.510063758       -7.03713917617
81.0101262658       -6.70451739962
81.5101887736       -6.36506321441
82.0102512814       -6.02531005711
82.5103137892       -5.69055696373
83.010376297       -5.36489915689
83.5104388049       -5.05133443654
84.0105013127       -4.75191079531
84.5105638205       -4.46788861284
85.0106263283       -4.19989921923
85.5106888361       -3.94808895165
86.0107513439       -3.71224342456
86.5108138517       -3.49189057262
87.0108763595       -3.28638338753
87.5109388674       -3.09496453089
88.0110013752       -2.91681551848
88.511063883       -2.75109322185
89.0111263908       -2.5969562257
89.5111888986       -2.45358325322
90.0112514064       -2.32018551079
90.5113139142       -2.19601445608
91.0113764221       -2.08036618406
91.5114389299       -1.97258336239
92.0115014377       -1.87205543067
92.5115639455       -1.77821760476
93.0116264533       -1.69054908983
93.5116889611       -1.60857080007
94.0117514689       -1.53184280091
94.5118139767       -1.4599616283
95.0118764846       -1.39255759291
95.5119389924       -1.32929214276
96.0120015002       -1.26985533248
96.512064008       -1.21396342873
97.0121265158       -1.1613566683
97.5121890236       -1.11179717595
98.0122515314       -1.06506704239
98.5123140393       -1.02096655866
99.0123765471       -0.979312600235
99.5124390549       -0.939937152298
100.012501563       -0.90268596705
100.512564071       -0.867417343188
101.012626578       -0.834001017936
101.512689086       -0.802317162199
102.012751594       -0.772255469863
102.512814102       -0.743714332794
103.01287661       -0.716600093685
103.512939117       -0.690826369502
104.013001625       -0.666313438866
104.513064133       -0.642987687317
105.013126641       -0.620781104926
105.513189149       -0.599630831266
106.013251656       -0.579478743205
106.513314164       -0.560271081464
107.013376672       -0.541958112255
107.51343918       -0.524493820701
108.013501688       -0.507835633083
108.513564196       -0.491944165241
109.013626703       -0.476782994773
109.513689211       -0.462318454887
110.013751719       -0.448519448006
110.513814227       -0.435357277443
111.013876735       -0.422805495631
111.513939242       -0.410839767561
112.01400175       -0.399437748259
112.514064258       -0.388578973241
113.014126766       -0.378244761045
113.514189274       -0.368418127025
114.014251781       -0.359083707731
114.514314289       -0.350227695274
115.014376797       -0.341837781195
115.514439305       -0.333903109424
116.014501813       -0.326414238015
116.514564321       -0.319363109419
117.014626828       -0.312743029136
117.514689336       -0.306548652674
118.014751844       -0.300775980804
118.514814352       -0.295422363203
119.01487686       -0.290486510631
119.514939367       -0.285968515891
120.015001875       -0.281869883895
120.515064383       -0.278193571252
121.015126891       -0.274944035889
121.515189399       -0.272127297307
122.015251906       -0.269751008204
122.515314414       -0.267824538271
123.015376922       -0.266359071123
123.51543943       -0.265367715435
124.015501938       -0.26486563149
124.515564446       -0.264870174492
125.015626953       -0.265401056126
125.515689461       -0.266480526022
126.015751969       -0.26813357489
126.515814477       -0.270388161263
127.015876985       -0.273275463867
127.515939492       -0.276830161766
128.016002       -0.281090744427
128.516064508       -0.28609985384
129.016127016       -0.291904660688
129.516189524       -0.298557276226
130.016252032       -0.306115201049
130.516314539       -0.314641811083
131.016377047       -0.324206879864
131.516439555       -0.334887134389
132.016502063       -0.34676683918
132.516564571       -0.359938399571
133.016627078       -0.374502970188
133.516689586       -0.390571047694
134.016752094       -0.408263017569
134.516814602       -0.427709612231
135.01687711       -0.449052221294
135.516939617       -0.472442973104
136.017002125       -0.498044478632
136.517064633       -0.526029092921
137.017127141       -0.556577504172
137.517189649       -0.589876405061
138.017252157       -0.626114934475
138.517314664       -0.665479501595
139.017377172       -0.708146521693
139.51743968       -0.754272512451
140.017502188       -0.80398093604
140.517564696       -0.857345151509
141.017627203       -0.914366903631
141.517689711       -0.974949975376
142.017752219       -1.03886904621
142.517814727       -1.10573451361
143.017877235       -1.17495512994
143.517939742       -1.24570181603
144.01800225       -1.31687786605
144.518064758       -1.38710269989
145.018127266       -1.45471783267
145.518189774       -1.51782402823
146.018252282       -1.57435674347
146.518314789       -1.62220220102
147.018377297       -1.65934870119
147.518439805       -1.68405828565
148.018502313       -1.69503515867
148.518564821       -1.69156269947
149.018627328       -1.67358320521
149.518689836       -1.64170425377
150.018752344       -1.59713036879
150.518814852       -1.54153388853
151.01887736       -1.47688976885
151.518939867       -1.40530262969
152.019002375       -1.32885077362
152.519064883       -1.2494636486
153.019127391       -1.16883964957
153.519189899       -1.08840301285
154.019252407       -1.00929327285
154.519314914       -0.932378448799
155.019377422       -0.858283133563
155.51943993       -0.787424029866
156.019502438       -0.72004739295
156.519564946       -0.656264730669
157.019627453       -0.59608468704
157.519689961       -0.539440198267
158.019752469       -0.486210783577
158.519814977       -0.436240291878
159.019877485       -0.389350656165
159.519939992       -0.345352287927
160.0200025       -0.304051733551
160.520065008       -0.265257156158
161.020127516       -0.22878212731
161.520190024       -0.194448130041
162.020252532       -0.162086097018
162.520315039       -0.131537239516
163.020377547       -0.102653365523
163.520440055       -0.0752968385975
164.020502563       -0.0493402917255
164.520565071       -0.024666181201
165.020627578       -0.00116624290377
165.520690086       0.0212591039254
166.020752594       0.0427013733813
166.520815102       0.0632446278144
167.02087761       0.0829660759693
167.520940118       0.101936644658
168.021002625       0.12022151814
168.521065133       0.137880642133
169.021127641       0.154969191332
169.521190149       0.17153800064
170.021252657       0.187633961216
170.521315164       0.203300382994
171.021377672       0.218577325705
171.52144018       0.233501900555
172.021502688       0.248108544812
172.521565196       0.262429271504
173.021627703       0.276493896377
173.521690211       0.29033024413
174.021752719       0.303964335845
174.521815227       0.317420559383
175.021877735       0.330721824367
175.521940243       0.343889703263
176.02200275       0.356944559917
176.522065258       0.369905666799
177.022127766       0.382791312087
177.522190274       0.395618897602
178.022252782       0.408405028533
178.522315289       0.42116559579
179.022377797       0.433915851733
179.522440305       0.446670479966
180.022502813       0.459443659818
180.522565321       0.472249126061
181.022627828       0.485100224381
181.522690336       0.498009963048
182.022752844       0.510991061213
182.522815352       0.524055994198
183.02287786       0.537217036131
183.522940368       0.550486300233
184.023002875       0.563875777051
184.523065383       0.577397370885
185.023127891       0.591062934675
185.523190399       0.604884303547
186.023252907       0.61887332724
186.523315414       0.633041901605
187.023377922       0.647401999355
187.52344043       0.661965700232
188.023502938       0.67674522077
188.523565446       0.691752943786
189.023627953       0.707001447762
189.523690461       0.722503536257
190.023752969       0.73827226749
190.523815477       0.754320984225
191.023877985       0.770663344107
191.523940493       0.787313350565
192.024003       0.804285384433
192.524065508       0.821594236422
193.024128016       0.83925514058
193.524190524       0.857283808877
194.024253032       0.875696467075
194.524315539       0.89450989203
195.024378047       0.913741450574
195.524440555       0.933409140164
196.024503063       0.953531631447
196.524565571       0.974128312951
197.024628079       0.99521933808
197.524690586       1.01682567462
198.024753094       1.03896915699
198.524815602       1.06167254147
199.02487811       1.08495956463
199.524940618       1.1088550053
200.025003125       1.13338475028
200.525065633       1.1585758642
201.025128141       1.18445666379
201.525190649       1.21105679699
202.025253157       1.23840732726
202.525315664       1.26654082349
203.025378172       1.29549145611
203.52544068       1.32529509972
204.025503188       1.35598944294
204.525565696       1.38761410603
205.025628204       1.42021076692
205.525690711       1.45382329638
206.025753219       1.48849790312
206.525815727       1.5242832897
207.025878235       1.56123082005
207.525940743       1.59939469983
208.02600325       1.63883217057
208.526065758       1.67960371892
209.026128266       1.7217733023
209.526190774       1.76540859248
210.026253282       1.81058123864
210.526315789       1.85736715181
211.026378297       1.90584681257
211.526440805       1.95610560414
212.026503313       2.00823417348
212.526565821       2.06232882266
213.026628329       2.11849193385
213.526690836       2.17683243075
214.026753344       2.23746628035
214.526815852       2.30051703872
215.02687836       2.36611644532
215.526940868       2.43440507071
216.027003375       2.50553302285
216.527065883       2.57966071813
217.027128391       2.65695972363
217.527190899       2.73761367806
218.027253407       2.82181929932
218.527315914       2.90978748811
219.027378422       3.0017445373
219.52744093       3.09793345861
220.027503438       3.1986154389
220.527565946       3.30407144014
221.027628454       3.41460395842
221.527690961       3.53053895936
222.027753469       3.65222800908
222.527815977       3.78005062206
223.027878485       3.91441684971
223.527940993       4.05577013584
224.0280035       4.20459046845
224.528066008       4.36139786006
225.028128516       4.52675619222
225.528191024       4.70127746366
226.028253532       4.88562648482
226.52831604       5.08052606574
227.028378547       5.28676274775
227.528441055       5.50519313276
228.028503563       5.73675086683
228.528566071       5.98245433594
229.028628579       6.24341513135
229.528691086       6.52084733797
230.028753594       6.81607769072
230.528816102       7.1305566277
231.02887861       7.4658702437
231.528941118       7.82375310761
232.029003625       8.20610185022
232.529066133       8.61498934814
233.029128641       9.05267922105
233.529191149       9.52164021865
234.029253657       10.0245598957
234.529316165       10.5643567551
235.029378672       11.1441897709
235.52944118       11.7674638732
236.029503688       12.4378295493
236.529566196       13.1591741506
237.029628704       13.9356017181
237.529691211       14.7713970908
238.029753719       15.6709686904
238.529816227       16.6387626726
239.029878735       17.6791391819
239.529941243       18.7961993661
240.03000375       19.9935498694
240.530066258       21.2739901129
241.030128766       22.6391073975
241.530191274       24.0887666711
242.030253782       25.6204870018
242.53031629       27.2287071625
243.030378797       28.9039602443
243.530441305       30.6320036769
244.030503813       32.3929870782
244.530566321       34.1607839976
245.030628829       35.9026583486
245.530691336       37.5794694812
246.030753844       39.1466224875
246.530816352       40.5559206524
247.03087886       41.7583585164
247.530941368       42.7077082526
248.031003875       43.3645299377
248.531066383       43.7000403243
249.031128891       43.6991828598
249.531191399       43.3623140131
250.031253907       42.7051636615
250.531316415       41.7570777301
251.031378922       40.5578990729
251.53144143       39.1540785538
252.031503938       37.5946726848
252.531566446       35.9277861469
253.031628954       34.1978187449
253.531691461       32.4436547248
254.031753969       30.6977491932
254.531816477       28.9859511512
255.031878985       27.3278557285
255.531941493       25.7374826855
256.032004001       24.2241122958
256.532066508       22.7931546495
257.032129016       21.4469718313
257.532191524       20.1856080759
258.032254032       19.0074090178
258.53231654       17.9095282669
259.032379047       16.8883295497
259.532441555       15.9396975777
260.032504063       15.0592723902
260.532566571       14.2426215249
261.032629079       13.4853629319
261.532691586       12.783249688
262.032754094       12.132225643
262.532816602       11.5284593488
263.03287911       10.9683620605
263.532941618       10.4485942957
264.033004126       9.96606437486
