#  x                 y             frequency           rot. str.
0.0      -0.328684838894      36.68      -1.08
0.500062507813      -0.334988235978      51.53      -5.54
1.00012501563      -0.341478972186      59.92      -10.14
1.50018752344      -0.348164691893      65.93      2.06
2.00025003125      -0.355053441479      175.55      -4.48
2.50031253907      -0.362153695412      195.05      -1.67
3.00037504688      -0.369474384365      232.22      14.23
3.50043755469      -0.377024925524      296.42      2.16
4.00050006251      -0.3848152553      331.42      -0.66
4.50056257032      -0.392855864658      336.63      -0.52
5.00062507813      -0.401157837303      359.75      4.37
5.50068758595      -0.409732890998      420.52      -0.66
6.00075009376      -0.418593422291      424.95      19.23
6.50081260158      -0.427752555002      438.21      -24.11
7.00087510939      -0.43722419279      478.53      14.49
7.5009376172      -0.44702307624      513.40      11.00
8.00100012502      -0.457164844863      543.32      15.24
8.50106263283      -0.46766610453      584.88      -158.44
9.00112514064      -0.478544500845      635.19      76.34
9.50118764846      -0.489818799068      659.54      -0.90
10.0012501563      -0.501508971226      714.22      45.98
10.5013126641      -0.51363629114      743.08      27.89
11.0013751719      -0.526223438163      783.17      11.68
11.5014376797      -0.539294610503      812.82      -162.86
12.0015001875      -0.552875649091      822.50      49.22
12.5015626953      -0.566994173073      840.30      -13.78
13.0016252032      -0.581679728063      857.20      -4.62
13.501687711      -0.596963948445      886.71      31.86
14.0017502188      -0.612880735104      919.64      -14.28
14.5018127266      -0.629466450069      945.91      0.37
15.0018752344      -0.646760129692      959.62      -1.14
15.5019377422      -0.664803718062      1017.85      -1.18
16.00200025      -0.683642322461      1036.36      0.26
16.5020627578      -0.703324492729      1118.31      55.33
17.0021252657      -0.723902526429      1128.08      -15.22
17.5021877735      -0.745432801655      1166.05      59.47
18.0022502813      -0.767976139216      1186.88      -101.59
18.5023127891      -0.791598195664      1198.76      1.94
19.0023752969      -0.81636988818      1205.40      58.54
19.5024378047      -0.84236785167      1234.24      -1.17
20.0025003125      -0.869674927366      1242.85      -32.64
20.5025628204      -0.898380680731      1287.10      0.09
21.0026253282      -0.928581944337      1302.75      6.02
21.502687836      -0.960383378389      1337.02      -40.94
22.0027503438      -0.993898037496      1347.46      29.45
22.5028128516      -1.02924792669      1362.99      -34.91
23.0028753594      -1.06656452228      1367.30      9.73
23.5029378672      -1.10598922306      1417.54      -6.28
24.003000375      -1.14767368461      1474.73      -8.08
24.5030628829      -1.19177997223      1487.26      -2.80
25.0031253907      -1.23848044674      1551.20      8.29
25.5031878985      -1.28795727018      1630.35      76.25
26.0032504063      -1.34040138539      1634.76      -19.79
26.5033129141      -1.3960107841      1658.70      -8.48
27.0033754219      -1.45498783348      1808.10      -23.96
27.5034379297      -1.51753538363      2925.75      3.89
28.0035004376      -1.58385133378      3054.89      -7.23
28.5035629454      -1.65412130304      3105.36      3.31
29.0036254532      -1.72850904879      3151.80      1.56
29.503687961      -1.80714432729      3159.80      -1.98
30.0037504688      -1.89010803239      3184.74      2.82
30.5038129766      -1.97741472395      3194.90      -1.31
31.0038754844      -2.06899311863      3512.33      -11.05
31.5039379922      -2.16466580321      3598.59      3.43
32.0040005001      -2.26413035554      3727.42      2.27
32.5040630079      -2.36694515788      3799.17      5.48
33.0041255157       -2.47252428323
33.5041880235       -2.58014659051
34.0042505313       -2.68898409272
34.5043130391       -2.7981532235
35.0043755469       -2.90678945083
35.5044380548       -3.01414088695
36.0045005626       -3.1196709942
36.5045630704       -3.22315582009
37.0046255782       -3.32475934444
37.504688086       -3.42507285135
38.0047505938       -3.52511068723
38.5048131016       -3.62626357505
39.0048756095       -3.73021900657
39.5049381173       -3.83886350879
40.0050006251       -3.95418250156
40.5050631329       -4.07817045557
41.0051256407       -4.21275875962
41.5051881485       -4.35976303489
42.0052506563       -4.52084703007
42.5053131641       -4.69749734331
43.005375672       -4.89100201343
43.5054381798       -5.10242611174
44.0055006876       -5.33257840267
44.5055631954       -5.58196462012
45.0056257032       -5.85072483713
45.505688211       -6.13855488903
46.0057507188       -6.44461506116
46.5058132267       -6.76743347155
47.0058757345       -7.10481677184
47.5059382423       -7.45378652588
48.0060007501       -7.81056479179
48.5060632579       -8.17063507525
49.0061257657       -8.5289022976
49.5061882735       -8.87996508862
50.0062507813       -9.2184942582
50.5063132892       -9.53968440939
51.006375797       -9.83971713192
51.5064383048       -10.1161533509
52.0065008126       -10.3681688838
52.5065633204       -10.5965664499
53.0066258282       -10.8035365552
53.506688336       -10.992188029
54.0067508439       -11.165912099
54.5068133517       -11.3276704261
55.0068758595       -11.4793038786
55.5069383673       -11.6209493519
56.0070008751       -11.7506348585
56.5070633829       -11.8641054404
57.0071258907       -11.954916367
57.5071883985       -12.0148125871
58.0072509064       -12.0343887913
58.5073134142       -12.0039886167
59.007375922       -11.9147563483
59.5074384298       -11.7597100216
60.0075009376       -11.5346774413
60.5075634454       -11.2389421882
61.0076259532       -10.8754916182
61.5076884611       -10.4508342444
62.0077509689       -9.97443723938
62.5078134767       -9.45789981543
63.0078759845       -8.9140070365
63.5079384923       -8.35579895317
64.0080010001       -7.79575383238
64.5080635079       -7.24513993863
65.0081260158       -6.71355321881
65.5081885236       -6.20863548794
66.0082510314       -5.73595792952
66.5083135392       -5.29905164052
67.008376047       -4.89956420873
67.5084385548       -4.53751594883
68.0085010626       -4.21162264059
68.5085635704       -3.9196469787
69.0086260783       -3.65874160533
69.5086885861       -3.42575330808
70.0087510939       -3.21746890126
70.5088136017       -3.03079531264
71.0088761095       -2.86287657993
71.5089386173       -2.7111571953
72.0090011251       -2.57340430372
72.509063633       -2.44770140464
73.0091261408       -2.33242453516
73.5091886486       -2.22620945462
74.0092511564       -2.12791583317
74.5093136642       -2.03659227782
75.009376172       -1.95144436118
75.5094386798       -1.87180664714
76.0095011876       -1.79711895274
76.5095636955       -1.72690664428
77.0096262033       -1.6607645414
77.5096887111       -1.59834391784
78.0097512189       -1.53934208539
78.5098137267       -1.48349408869
79.0098762345       -1.43056609977
79.5099387423       -1.38035016629
80.0100012502       -1.33266002985
80.510063758       -1.2873277856
81.0101262658       -1.24420120155
81.5101887736       -1.20314155418
82.0102512814       -1.16402186844
82.5103137892       -1.1267254749
83.010376297       -1.09114481642
83.5104388049       -1.05718045187
84.0105013127       -1.02474021641
84.5105638205       -0.993738506899
85.0106263283       -0.96409566787
85.5106888361       -0.935737459379
86.0107513439       -0.908594591666
86.5108138517       -0.882602315132
87.0108763595       -0.857700056426
87.5109388674       -0.833831093383
88.0110013752       -0.810942262991
88.511063883       -0.788983697712
89.0111263908       -0.767908586356
89.5111888986       -0.747672956383
90.0112514064       -0.728235475066
90.5113139142       -0.709557267357
91.0113764221       -0.691601748646
91.5114389299       -0.674334470865
92.0115014377       -0.657722980616
92.5115639455       -0.641736688172
93.0116264533       -0.626346746361
93.5116889611       -0.611525938434
94.0117514689       -0.597248574157
94.5118139767       -0.583490393425
95.0118764846       -0.570228476778
95.5119389924       -0.557441162266
96.0120015002       -0.545107968152
96.512064008       -0.533209521006
97.0121265158       -0.521727488774
97.5121890236       -0.51064451843
98.0122515314       -0.499944177898
98.5123140393       -0.489610901891
99.0123765471       -0.479629941408
99.5124390549       -0.46998731661
100.012501563       -0.46066977283
100.512564071       -0.451664739501
101.012626578       -0.44296029179
101.512689086       -0.43454511475
102.012751594       -0.42640846981
102.512814102       -0.418540163452
103.01287661       -0.410930517911
103.512939117       -0.403570343772
104.013001625       -0.396450914334
104.513064133       -0.389563941618
105.013126641       -0.382901553915
105.513189149       -0.37645627477
106.013251656       -0.370221003315
106.513314164       -0.364188995858
107.013376672       -0.358353848648
107.51343918       -0.352709481753
108.013501688       -0.347250123965
108.513564196       -0.341970298689
109.013626703       -0.336864810738
109.513689211       -0.331928733999
110.013751719       -0.327157399903
110.513814227       -0.322546386667
111.013876735       -0.318091509254
111.513939242       -0.313788810026
112.01400175       -0.309634550036
112.514064258       -0.305625200942
113.014126766       -0.301757437505
113.514189274       -0.298028130643
114.014251781       -0.294434341024
114.514314289       -0.290973313155
115.014376797       -0.287642469977
115.514439305       -0.284439407914
116.014501813       -0.281361892387
116.514564321       -0.278407853763
117.014626828       -0.275575383723
117.514689336       -0.272862732054
118.014751844       -0.270268303842
118.514814352       -0.267790657056
119.01487686       -0.265428500535
119.514939367       -0.263180692346
120.015001875       -0.26104623854
120.515064383       -0.259024292277
121.015126891       -0.257114153342
121.515189399       -0.255315268042
122.015251906       -0.253627229488
122.515314414       -0.252049778272
123.015376922       -0.250582803549
123.51543943       -0.249226344519
124.015501938       -0.247980592335
124.515564446       -0.24684589244
125.015626953       -0.245822747358
125.515689461       -0.244911819945
126.015751969       -0.244113937122
126.515814477       -0.243430094123
127.015876985       -0.242861459269
127.515939492       -0.2424093793
128.016002       -0.242075385305
128.516064508       -0.241861199267
129.016127016       -0.241768741277
129.516189524       -0.24180013745
130.016252032       -0.241957728594
130.516314539       -0.242244079675
131.016377047       -0.242661990148
131.516439555       -0.243214505199
132.016502063       -0.243904927977
132.516564571       -0.244736832892
133.016627078       -0.245714080051
133.516689586       -0.246840830925
134.016752094       -0.248121565357
134.516814602       -0.249561100004
135.01687711       -0.251164608342
135.516939617       -0.252937642362
136.017002125       -0.254886156104
136.517064633       -0.257016531189
137.017127141       -0.259335604515
137.517189649       -0.261850698328
138.017252157       -0.264569652866
138.517314664       -0.267500861815
139.017377172       -0.270653310843
139.51743968       -0.274036619489
140.017502188       -0.277661086735
140.517564696       -0.281537740598
141.017627203       -0.285678392147
141.517689711       -0.290095694355
142.017752219       -0.294803206281
142.517814727       -0.299815463093
143.017877235       -0.305148052531
143.517939742       -0.310817698446
144.01800225       -0.316842352146
144.518064758       -0.323241292342
145.018127266       -0.330035234591
145.518189774       -0.33724645121
146.018252282       -0.344898902777
146.518314789       -0.353018382421
147.018377297       -0.361632674276
147.518439805       -0.37077172759
148.018502313       -0.380467848173
148.518564821       -0.390755909045
149.018627328       -0.401673582343
149.518689836       -0.413261594777
150.018752344       -0.425564009163
150.518814852       -0.438628534839
151.01887736       -0.452506870033
151.518939867       -0.46725507958
152.019002375       -0.482934011692
152.519064883       -0.499609757817
153.019127391       -0.517354159961
153.519189899       -0.536245370161
154.019252407       -0.556368467103
154.519314914       -0.577816135096
155.019377422       -0.600689410787
155.51943993       -0.625098502963
156.019502438       -0.65116369061
156.519564946       -0.679016303823
157.019627453       -0.708799791225
157.519689961       -0.740670875911
158.019752469       -0.774800799474
158.519814977       -0.811376649992
159.019877485       -0.850602764604
159.519939992       -0.892702189797
160.0200025       -0.937918172185
160.520065008       -0.986515638308
161.020127516       -1.0387826026
161.520190024       -1.09503141671
162.020252532       -1.15559973856
162.520315039       -1.22085105414
163.020377547       -1.29117452511
163.520440055       -1.36698385895
164.020502563       -1.44871480112
164.520565071       -1.53682072771
165.020627578       -1.63176567055
165.520690086       -1.73401393441
166.020752594       -1.84401527401
166.520815102       -1.96218439951
167.02087761       -2.08887340226
167.520940118       -2.22433558442
168.021002625       -2.3686792165
168.521065133       -2.5218100503
169.021127641       -2.68336214218
169.521190149       -2.85261788827
170.021252657       -3.02842034647
170.521315164       -3.20908406714
171.021377672       -3.39231474897
171.52144018       -3.57515270054
172.021502688       -3.75395939723
172.521565196       -3.92446878476
173.021627703       -4.08192324759
173.521690211       -4.22130618327
174.021752719       -4.33766781557
174.521815227       -4.42651955988
175.021877735       -4.48424955569
175.521940243       -4.50849533902
176.02200275       -4.49840678894
176.522065258       -4.45474767726
177.022127766       -4.37981501493
177.522190274       -4.27719290774
178.022252782       -4.151389793
178.522315289       -4.0074251349
179.022377797       -3.85043073075
179.522440305       -3.68531632773
180.022502813       -3.51652682016
180.522565321       -3.34789652175
181.022627828       -3.18258989256
181.522690336       -3.02310930848
182.022752844       -2.87134810904
182.522815352       -2.72866915226
183.02287786       -2.59599325954
183.522940368       -2.47388657896
184.023002875       -2.36264003566
184.523065383       -2.26233724297
185.023127891       -2.17290946078
185.523190399       -2.09417754486
186.023252907       -2.02588154387
186.523315414       -1.9676988766
187.023377922       -1.91925204538
187.52344043       -1.88010676083
188.023502938       -1.84976129469
188.523565446       -1.82762795124
189.023627953       -1.81300785742
189.523690461       -1.8050609086
190.023752969       -1.80277373217
190.523815477       -1.80492993517
191.023877985       -1.8100885413
191.523940493       -1.81657804833
192.024003       -1.82251435034
192.524065508       -1.82585006655
193.024128016       -1.82445979611
193.524190524       -1.81626007176
194.024253032       -1.79935481043
194.524315539       -1.77218858604
195.024378047       -1.73368385421
195.524440555       -1.68333722316
196.024503063       -1.62125555668
196.524565571       -1.54812421829
197.024628079       -1.46511375108
197.524690586       -1.37374325346
198.024753094       -1.27572509295
198.524815602       -1.17281522338
199.02487811       -1.06668759207
199.524940618       -0.958842758841
200.025003125       -0.850552740923
200.525065633       -0.74283810731
201.025128141       -0.636470086547
201.525190649       -0.531989591629
202.025253157       -0.429735822766
202.525315664       -0.329878670148
203.025378172       -0.232450883769
203.52544068       -0.137377536073
204.025503188       -0.0445015163207
204.525565696       0.0463953577252
205.025628204       0.135575493898
205.525690711       0.223332536936
206.025753219       0.309981701842
206.525815727       0.395852871627
207.025878235       0.48128593828
207.525940743       0.566627930942
208.02600325       0.652231549858
208.526065758       0.738454797817
209.026128266       0.825661466803
209.526190774       0.914222294317
210.026253282       1.00451665082
210.526315789       1.09693465773
211.026378297       1.19187966562
211.526440805       1.28977104531
212.026503313       1.39104726257
212.526565821       1.49616921958
213.026628329       1.60562385513
213.526690836       1.71992800035
214.026753344       1.83963248775
214.526815852       1.9653265084
215.02687836       2.09764220469
215.526940868       2.23725947322
216.027003375       2.38491093243
216.527065883       2.54138698084
217.027128391       2.70754083155
217.527190899       2.88429335326
218.027253407       3.07263747301
218.527315914       3.27364179552
219.027378422       3.48845296129
219.52744093       3.71829609161
220.027503438       3.96447244401
220.527565946       4.22835311531
221.027628454       4.51136727042
221.527690961       4.8149829365
222.027753469       5.14067787986
222.527815977       5.48989749031
223.027878485       5.86399596579
223.527940993       6.26415649115
224.0280035       6.6912856689
224.528066008       7.14587739875
225.028128516       7.6278420462
225.528191024       8.13629854748
226.028253532       8.66933066157
226.52831604       9.22371455988
227.028378547       9.79463390525
227.528441055       10.3754106617
228.028503563       10.9572943268
228.528566071       11.5293667835
229.028628579       12.078630168
229.528691086       12.5903446865
230.028753594       13.0486650655
230.528816102       13.4375832769
231.02887861       13.7421226018
231.528941118       13.9496551622
232.029003625       14.0511530399
232.529066133       14.0421575255
233.029128641       13.9232803324
233.529191149       13.7001346833
234.029253657       13.3827105321
234.529316165       12.9843199487
235.029378672       12.5203110681
235.52944118       12.0067645187
236.029503688       11.4593499285
236.529566196       10.8924532177
237.029628704       10.3186133113
237.529691211       9.74824880384
238.029753719       9.18961964893
238.529816227       8.64895548065
239.029878735       8.13068488269
239.529941243       7.63771164242
240.03000375       7.17169883226
240.530066258       6.73333559378
241.030128766       6.32257287674
241.530191274       5.93882260681
242.030253782       5.58112010645
242.53031629       5.24825268394
243.030378797       4.93885878836
243.530441305       4.65150256957
244.030503813       4.38472850785
244.530566321       4.1371002876
245.030628829       3.90722747391
245.530691336       3.69378292366
246.030753844       3.49551328466
246.530816352       3.31124443397
247.03087886       3.13988328717
247.530941368       2.98041706958
248.031003875       2.83191086975
248.531066383       2.69350408384
249.031128891       2.56440619621
249.531191399       2.44389221723
250.031253907       2.33129800522
250.531316415       2.22601562949
251.031378922       2.12748887961
251.53144143       2.03520898778
252.031503938       1.94871060413
252.531566446       1.86756804492
253.031628954       1.79139181981
253.531691461       1.71982543531
254.031753969       1.65254246492
254.531816477       1.58924387284
255.031878985       1.52965557563
255.531941493       1.47352622521
256.032004001       1.42062519645
256.532066508       1.37074076248
257.032129016       1.32367844193
257.532191524       1.27925950292
258.032254032       1.23731960952
258.53231654       1.19770759785
259.032379047       1.16028436946
259.532441555       1.12492189134
260.032504063       1.09150229221
260.532566571       1.05991704629
261.032629079       1.03006623624
261.532691586       1.00185788794
262.032754094       0.975207370484
262.532816602       0.950036855424
263.03287911       0.92627483009
