#  x                 y             frequency           rot. str.
0.0      0.378937743348      29.26      5.86
0.500062507813      0.392033611943      40.87      0.21
1.00012501563      0.4057710399      61.46      0.08
1.50018752344      0.420190886065      80.07      -2.83
2.00025003125      0.435337188548      148.60      0.92
2.50031253907      0.451257453017      237.98      0.82
3.00037504688      0.468002970195      248.00      -3.43
3.50043755469      0.485629165709      278.81      26.35
4.00050006251      0.504195985784      318.42      -72.73
4.50056257032      0.523768322608      333.21      -64.23
5.00062507813      0.544416483613      336.02      73.61
5.50068758595      0.566216709297      375.08      -1.65
6.00075009376      0.589251744655      421.80      3.88
6.50081260158      0.613611469715      431.39      2.42
7.00087510939      0.639393595108      494.93      -7.90
7.5009376172      0.666704428991      541.18      2.36
8.00100012502      0.695659722006      557.98      -31.47
8.50106263283      0.726385597191      591.65      13.29
9.00112514064      0.759019571865      603.52      64.26
9.50118764846      0.793711678347      660.22      -0.45
10.0012501563      0.830625689899      731.69      -0.86
10.5013126641      0.869940457269      759.81      -21.92
11.0013751719      0.91185135952      790.63      -9.68
11.5014376797      0.956571870148      804.58      25.57
12.0015001875      1.00433523548      817.11      21.18
12.5015626953      1.05539625642      847.04      -109.36
13.0016252032      1.11003315638      862.18      116.61
13.501687711      1.1685495063      869.40      -14.93
14.0017502188      1.23127616184      931.47      3.77
14.5018127266      1.29857314532      955.73      -2.25
15.0018752344      1.37083137582      967.00      32.92
15.5019377422      1.4484741103      1000.37      -32.79
16.00200025      1.53195790644      1036.36      -0.34
16.5020627578      1.62177284855      1098.90      51.48
17.0021252657      1.71844168827      1119.66      -75.58
17.5021877735      1.82251743766      1146.90      19.61
18.0022502813      1.93457880877      1172.85      15.08
18.5023127891      2.05522271725      1190.69      -6.02
19.0023752969      2.18505285731      1199.36      -6.77
19.5024378047      2.32466311462      1232.89      1.52
20.0025003125      2.47461432416      1253.62      48.91
20.5025628204      2.63540262951      1288.54      -8.36
21.0026253282      2.80741750751      1326.77      3.78
21.502687836      2.99088747038      1343.05      20.71
22.0027503438      3.18581167491      1354.08      16.82
22.5028128516      3.39187633706      1366.50      15.85
23.0028753594      3.60835620763      1369.87      1.64
23.5029378672      3.83400368225      1399.08      -10.05
24.003000375      4.06693163919      1475.24      7.57
24.5030628829      4.30450091634      1492.15      -2.02
25.0031253907      4.54322919938      1552.66      -13.75
25.5031878985      4.77874414585      1635.47      0.70
26.0032504063      5.00580813475      1659.15      -0.32
26.5033129141      5.21844258226      1660.53      15.36
27.0033754219      5.41017335703      1811.43      -62.67
27.5034379297      5.5744031965      3046.30      -7.04
28.0035004376      5.70489224824      3076.73      6.72
28.5035629454      5.79629795851      3094.51      -4.46
29.0036254532      5.84469880313      3151.55      -2.48
29.503687961      5.84801330966      3161.67      2.71
30.0037504688      5.80623472524      3178.54      -2.45
30.5038129766      5.72143369002      3196.18      1.65
31.0038754844      5.5975282423      3485.01      1.30
31.5039379922      5.43986765036      3563.94      2.94
32.0040005001      5.25470908766      3727.52      -3.11
32.5040630079      5.04867568249      3799.81      -6.29
33.0041255157       4.82827190384
33.5041880235       4.59950574329
34.0042505313       4.36763723574
34.5043130391       4.13704793036
35.0043755469       3.91121012093
35.5044380548       3.69272814304
36.0045005626       3.48342462031
36.5045630704       3.28444924364
37.0046255782       3.09639392687
37.504688086       2.91940424401
38.0047505938       2.75328196249
38.5048131016       2.59757687336
39.0048756095       2.45166798021
39.5049381173       2.31483466341
40.0050006251       2.18631806766
40.5050631329       2.06537217306
41.0051256407       1.95130335929
41.5051881485       1.84349721572
42.0052506563       1.74143208157
42.5053131641       1.64468014759
43.005375672       1.55289844717
43.5054381798       1.46581316981
44.0055006876       1.38320108129
44.5055631954       1.30487139376
45.0056257032       1.23065044054
45.505688211       1.16037034377
46.0057507188       1.09386184161
46.5058132267       1.03095074388
47.0058757345       0.971457139858
47.5059382423       0.915196420757
48.0060007501       0.861981294205
48.5060632579       0.811624161754
49.0061257657       0.763939433024
49.5061882735       0.71874552331
50.0062507813       0.675866411234
50.5063132892       0.635132719425
51.006375797       0.59638233182
51.5064383048       0.55946058535
52.0065008126       0.52422008022
52.5065633204       0.490520148838
53.0066258282       0.458226014154
53.506688336       0.427207657783
54.0067508439       0.397338410357
54.5068133517       0.36849327425
55.0068758595       0.340546995643
55.5069383673       0.313371922611
56.0070008751       0.286835722014
56.5070633829       0.260799082795
57.0071258907       0.235113605366
57.5071883985       0.209620157958
58.0072509064       0.18414805276
58.5073134142       0.158515426998
59.007375922       0.132531167547
59.5074384298       0.105998555173
60.0075009376       0.0787205116274
60.5075634454       0.0505059414882
61.0076259532       0.0211762625191
61.5076884611       -0.00942904909224
62.0077509689       -0.0414490755807
62.5078134767       -0.0750010922004
63.0078759845       -0.110183491065
63.5079384923       -0.14708159302
64.0080010001       -0.18577539908
64.5080635079       -0.22634806778
65.0081260158       -0.26889395832
65.5081885236       -0.313525371474
66.0082510314       -0.360377510635
66.5083135392       -0.409611541458
67.008376047       -0.461415868401
67.5084385548       -0.516005846925
68.0085010626       -0.573622129649
68.5085635704       -0.63452774001
69.0086260783       -0.699003813877
69.5086885861       -0.76734377476
70.0087510939       -0.839845527936
70.5088136017       -0.916801082412
71.0088761095       -0.998482845817
71.5089386173       -1.08512570007
72.0090011251       -1.17690388086
72.509063633       -1.27390169608
73.0091261408       -1.37607729642
73.5091886486       -1.48321915174
74.0092511564       -1.59489571208
74.5093136642       -1.71040007132
75.009376172       -1.82869340249
75.5094386798       -1.94835348927
76.0095011876       -2.06753761699
76.5095636955       -2.1839718505
77.0096262033       -2.29498033636
77.5096887111       -2.39756738172
78.0097512189       -2.48856030806
78.5098137267       -2.56481169968
79.0098762345       -2.62344637809
79.5099387423       -2.66212402387
80.0100012502       -2.67927745513
80.510063758       -2.67428410567
81.0101262658       -2.64753711255
81.5101887736       -2.60040142119
82.0102512814       -2.53506397299
82.5103137892       -2.45430778656
83.010376297       -2.36125132704
83.5104388049       -2.25909467753
84.0105013127       -2.15090472535
84.5105638205       -2.03945753639
85.0106263283       -1.92714219701
85.5106888361       -1.81591994771
86.0107513439       -1.70732659592
86.5108138517       -1.60250449558
87.0108763595       -1.50225152212
87.5109388674       -1.40707706235
88.0110013752       -1.31725799883
88.511063883       -1.23289034393
89.0111263908       -1.15393427817
89.5111888986       -1.08025182328
90.0112514064       -1.01163731433
90.5113139142       -0.947841353726
91.0113764221       -0.888589160932
91.5114389299       -0.833594280054
92.0115014377       -0.782568551838
92.5115639455       -0.735229149385
93.0116264533       -0.691303352316
93.5116889611       -0.650531611061
94.0117514689       -0.612669341624
94.5118139767       -0.577487795536
95.0118764846       -0.544774270567
95.5119389924       -0.514331863799
96.0120015002       -0.485978918168
96.512064008       -0.459548274135
97.0121265158       -0.434886407933
97.5121890236       -0.411852514775
98.0122515314       -0.390317578143
98.5123140393       -0.370163453328
99.0123765471       -0.351281983904
99.5124390549       -0.333574162881
100.012501563       -0.316949345228
100.512564071       -0.301324514958
101.012626578       -0.28662360745
101.512689086       -0.27277688599
102.012751594       -0.259720370455
102.512814102       -0.247395315309
103.01287661       -0.235747733767
103.512939117       -0.224727964751
104.013001625       -0.214290279283
104.513064133       -0.204392522996
105.013126641       -0.194995791609
105.513189149       -0.186064136378
106.013251656       -0.177564296724
106.513314164       -0.169465457467
107.013376672       -0.161739028271
107.51343918       -0.154358443137
108.013501688       -0.147298977946
108.513564196       -0.140537584251
109.013626703       -0.134052737663
109.513689211       -0.127824299358
110.013751719       -0.121833389333
110.513814227       -0.116062270202
111.013876735       -0.110494240415
111.513939242       -0.105113535892
112.01400175       -0.0999052391476
112.514064258       -0.0948551950865
113.014126766       -0.0899499326882
113.514189274       -0.0851765918934
114.014251781       -0.0805228550428
114.514314289       -0.0759768822714
115.014376797       -0.0715272503058
115.514439305       -0.0671628941442
116.014501813       -0.0628730511281
116.514564321       -0.058647206941
117.014626828       -0.0544750430841
117.514689336       -0.0503463853969
118.014751844       -0.0462511531944
118.514814352       -0.0421793086013
119.01487686       -0.0381208056576
119.514939367       -0.03406553877
120.015001875       -0.0300032900679
120.515064383       -0.0259236752126
121.015126891       -0.021816087184
121.515189399       -0.0176696375487
122.015251906       -0.0134730946799
122.515314414       -0.00921481836718
123.015376922       -0.00488269021174
123.51543943       -0.000464039160173
124.015501938       0.00405443852343
124.515564446       0.00868676559999
125.015626953       0.0134477773253
125.515689461       0.0183532229218
126.015751969       0.0234198759884
126.515814477       0.0286656548483
127.015876985       0.0341097538873
127.515939492       0.0397727869853
128.016002       0.045676944167
128.516064508       0.0518461626006
129.016127016       0.0583063130291
129.516189524       0.0650854026137
130.016252032       0.0722137949753
130.516314539       0.0797244479027
131.016377047       0.0876531687046
131.516439555       0.0960388864589
132.016502063       0.104923939361
132.516564571       0.114354373896
133.016627078       0.124380250491
133.516689586       0.13505594748
134.016752094       0.146440451345
134.516814602       0.158597616035
135.01687711       0.171596367223
135.516939617       0.185510818281
136.017002125       0.200420252824
136.517064633       0.216408913345
137.017127141       0.233565516001
137.517189649       0.251982387299
138.017252157       0.271754088876
138.517314664       0.292975361779
139.017377172       0.315738182436
139.51743968       0.34012768173
140.017502188       0.366216641229
140.517564696       0.394058256358
141.017627203       0.423676860288
141.517689711       0.455056357471
142.017752219       0.48812625398
142.517814727       0.52274543278
143.017877235       0.558684248262
143.517939742       0.595606138772
144.01800225       0.633050777946
144.518064758       0.670421737724
145.018127266       0.706982541728
145.518189774       0.741865534893
146.018252282       0.774097751631
146.518314789       0.802646480136
147.018377297       0.826484235525
147.518439805       0.84466857523
148.018502313       0.856427493425
148.518564821       0.861237500238
149.018627328       0.858880545104
149.518689836       0.84946866536
150.018752344       0.833431303986
150.518814852       0.811467915599
151.01887736       0.784475313088
151.518939867       0.753463126734
152.019002375       0.71947094158
152.519064883       0.683497758297
153.019127391       0.646449890281
153.519189899       0.609108863939
154.019252407       0.572117429901
154.519314914       0.535979831225
155.019377422       0.50107187222
155.51943993       0.4676566725
156.019502438       0.435902821058
156.519564946       0.405902607736
157.019627453       0.377688885795
157.519689961       0.351249810583
158.019752469       0.326541187458
158.519814977       0.303496472419
159.019877485       0.282034642366
159.519939992       0.262066230256
160.0200025       0.243497838138
160.520065008       0.226235423921
161.020127516       0.210186623418
161.520190024       0.195262328747
162.020252532       0.181377704074
162.520315039       0.168452783303
163.020377547       0.156412762976
163.520440055       0.145188077719
164.020502563       0.134714324557
164.520565071       0.124932085852
165.020627578       0.115786687623
165.520690086       0.107227920112
166.020752594       0.0992097398419
166.520815102       0.0916899667355
167.02087761       0.0846299856209
167.520940118       0.077994458297
168.021002625       0.0717510500595
168.521065133       0.0658701729289
169.021127641       0.0603247466502
169.521190149       0.0550899777163
170.021252657       0.0501431561066
170.521315164       0.0454634690712
171.021377672       0.0410318310591
171.52144018       0.036830728763
172.021502688       0.0328440801963
172.521565196       0.0290571067052
173.021627703       0.0254562168456
173.521690211       0.0220289010962
174.021752719       0.0187636364382
174.521815227       0.0156497998964
175.021877735       0.0126775902032
175.521940243       0.0098379568158
176.02200275       0.00712253558214
176.522065258       0.00452359041377
177.022127766       0.00203396038353
177.522190274       -0.000352988279388
178.022252782       -0.00264340577351
178.522315289       -0.00484299831842
179.022377797       -0.00695706414493
179.522440305       -0.0089905262311
180.022502813       -0.0109479620982
180.522565321       -0.0128336309495
181.022627828       -0.0146514984051
181.522690336       -0.016405259063
182.022752844       -0.0180983570901
182.522815352       -0.0197340050295
183.02287786       -0.0213152009895
183.522940368       -0.0228447443641
184.023002875       -0.0243252502201
184.523065383       -0.0257591624722
185.023127891       -0.0271487659537
185.523190399       -0.0284961974841
186.023252907       -0.0298034560196
186.523315414       -0.0310724119678
187.023377922       -0.0323048157392
187.52344043       -0.033502305599
188.023502938       -0.0346664148793
188.523565446       -0.0357985786044
189.023627953       -0.0369001395759
189.523690461       -0.0379723539626
190.023752969       -0.0390163964319
190.523815477       -0.0400333648594
191.023877985       -0.0410242846463
191.523940493       -0.0419901126749
192.024003       -0.0429317409256
192.524065508       -0.0438499997787
193.024128016       -0.0447456610209
193.524190524       -0.0456194405742
194.024253032       -0.0464720009623
194.524315539       -0.0473039535285
195.024378047       -0.0481158604159
195.524440555       -0.0489082363197
196.024503063       -0.0496815500197
196.524565571       -0.0504362256982
197.024628079       -0.0511726440487
197.524690586       -0.0518911431765
198.024753094       -0.0525920192927
198.524815602       -0.0532755272011
199.02487811       -0.0539418805739
199.524940618       -0.0545912520115
200.025003125       -0.0552237728806
200.525065633       -0.0558395329204
201.025128141       -0.0564385796054
201.525190649       -0.0570209172517
202.025253157       -0.0575865058488
202.525315664       -0.0581352595989
203.025378172       -0.0586670451382
203.52544068       -0.0591816794154
204.025503188       -0.059678927196
204.525565696       -0.0601584981559
205.025628204       -0.060620043526
205.525690711       -0.0610631522391
206.025753219       -0.0614873465289
206.525815727       -0.0618920769206
207.025878235       -0.0622767165465
207.525940743       -0.0626405547087
208.02600325       -0.0629827896069
208.526065758       -0.0633025201297
209.026128266       -0.0635987366052
209.526190774       -0.0638703103846
210.026253282       -0.0641159821247
210.526315789       -0.0643343486132
211.026378297       -0.064523847966
211.526440805       -0.0646827430055
212.026503313       -0.0648091026061
212.526565821       -0.0649007807717
213.026628329       -0.0649553931864
213.526690836       -0.0649702909531
214.026753344       -0.0649425312113
214.526815852       -0.0648688443004
215.02687836       -0.0647455971138
215.526940868       -0.0645687522705
216.027003375       -0.0643338227227
216.527065883       -0.0640358214175
217.027128391       -0.0636692056526
217.527190899       -0.0632278158072
218.027253407       -0.062704808213
218.527315914       -0.0620925820588
219.027378422       -0.0613827004252
219.52744093       -0.0605658058456
220.027503438       -0.0596315312168
220.527565946       -0.0585684074979
221.027628454       -0.0573637704842
221.527690961       -0.056003670122
222.027753469       -0.0544727874376
222.527815977       -0.0527543663392
223.027878485       -0.050830170488
223.527940993       -0.0486804793638
224.0280035       -0.0462841428676
224.528066008       -0.0436187206709
225.028128516       -0.0406607414912
225.528191024       -0.0373861290681
226.028253532       -0.0337708564299
226.52831604       -0.0297919086806
227.028378547       -0.0254286575523
227.528441055       -0.0206647786591
228.028503563       -0.0154908745355
228.528566071       -0.00990800192897
229.028628579       -0.0039323375293
229.528691086       0.00239875331055
230.028753594       0.00901896500403
230.528816102       0.0158233526942
231.02887861       0.0226564896291
231.528941118       0.029298437299
232.029003625       0.035448758315
232.529066133       0.0407092344592
233.029128641       0.0445665682615
233.529191149       0.0463771341531
234.029253657       0.0453567235171
234.529316165       0.0405790109855
235.029378672       0.0309868485685
235.52944118       0.0154200698453
236.029503688       -0.00733811725505
236.529566196       -0.0384969973473
237.029628704       -0.0791812405605
237.529691211       -0.130349553423
238.029753719       -0.19272042382
238.529816227       -0.266716178574
239.029878735       -0.352433130197
239.529941243       -0.449639485538
240.03000375       -0.557795756263
240.530066258       -0.676086908345
241.030128766       -0.803453114144
241.530191274       -0.93860722739
242.030253782       -1.08003132464
242.53031629       -1.22595057331
243.030378797       -1.37428905401
243.530441305       -1.52261811756
244.030503813       -1.66811284588
244.530566321       -1.80753565863
245.030628829       -1.93726718048
245.530691336       -2.05340187406
246.030753844       -2.15191833809
246.530816352       -2.22892106474
247.03087886       -2.28093319888
247.530941368       -2.3052022955
248.031003875       -2.2999690524
248.531066383       -2.26464823711
249.031128891       -2.19988422883
249.531191399       -2.10746826142
250.031253907       -1.99013319673
250.531316415       -1.85126526566
251.031378922       -1.69458380229
251.53144143       -1.52383778134
252.031503938       -1.34255521239
252.531566446       -1.15386408191
253.031628954       -0.960387251258
253.531691461       -0.764202047092
254.031753969       -0.566849217134
254.531816477       -0.369374629801
255.031878985       -0.172388924098
255.531941493       0.0238663756692
256.032004001       0.219454193274
256.532066508       0.41468346241
257.032129016       0.61005929143
257.532191524       0.806242445741
258.032254032       1.0040178344
258.53231654       1.20427113269
259.032379047       1.40797243992
259.532441555       1.6161658398
260.032504063       1.82996380849
