#  x                 y             frequency           rot. str.
0.0      -0.161298858898      37.67      -3.96
0.500062507813      -0.166480496597      44.84      -3.71
1.00012501563      -0.171875871509      59.99      1.55
1.50018752344      -0.177496157859      65.49      5.68
2.00025003125      -0.183353241102      165.58      -0.91
2.50031253907      -0.189459771268      184.62      -2.46
3.00037504688      -0.195829220902      264.24      14.68
3.50043755469      -0.202475948039      293.64      -1.95
4.00050006251      -0.209415264709      314.01      8.12
4.50056257032      -0.21666351151      337.52      23.15
5.00062507813      -0.224238138855      351.89      -20.75
5.50068758595      -0.232157795555      392.62      2.66
6.00075009376      -0.240442425483      423.67      3.98
6.50081260158      -0.249113373131      432.21      1.30
7.00087510939      -0.258193498971      493.52      -1.04
7.5009376172      -0.267707305639      527.69      -27.58
8.00100012502      -0.277681076046      558.05      -33.09
8.50106263283      -0.288143024673      588.93      79.17
9.00112514064      -0.299123463431      629.85      -28.50
9.50118764846      -0.310654983618      659.67      0.77
10.0012501563      -0.322772655683      723.84      11.91
10.5013126641      -0.335514248688      751.55      -14.89
11.0013751719      -0.348920471576      794.52      28.51
11.5014376797      -0.363035238568      818.23      -1.67
12.0015001875      -0.377905961282      833.49      -23.19
12.5015626953      -0.39358387042      846.46      16.60
13.0016252032      -0.410124370194      860.82      5.39
13.501687711      -0.42758742895      882.46      47.56
14.0017502188      -0.446038009829      895.52      27.72
14.5018127266      -0.46554654563      939.42      -1.51
15.0018752344      -0.486189462437      956.93      2.42
15.5019377422      -0.50804975695      1011.99      -66.76
16.00200025      -0.53121763279      1035.46      -0.72
16.5020627578      -0.555791201441      1089.72      93.80
17.0021252657      -0.581877253716      1119.35      24.63
17.5021877735      -0.609592107821      1142.66      -56.83
18.0022502813      -0.639062540133      1188.31      -91.77
18.5023127891      -0.670426804545      1198.97      -3.69
19.0023752969      -0.703835745683      1199.87      3.91
19.5024378047      -0.739454010256      1234.12      2.19
20.0025003125      -0.777461359033      1259.60      23.65
20.5025628204      -0.818054079256      1288.55      -5.32
21.0026253282      -0.861446493305      1303.95      -8.49
21.502687836      -0.90787255367      1342.79      -5.59
22.0027503438      -0.957587506126      1349.46      -49.18
22.5028128516      -1.01086959172      1360.72      -7.57
23.0028753594      -1.06802174266      1367.10      -7.89
23.5029378672      -1.12937320608      1424.71      -19.02
24.003000375      -1.19528100168      1474.27      3.75
24.5030628829      -1.26613108138      1491.54      -4.94
25.0031253907      -1.3423390105      1550.92      -4.32
25.5031878985      -1.42434992612      1634.10      -6.44
26.0032504063      -1.51263744683      1653.60      3.47
26.5033129141      -1.60770110661      1658.62      11.32
27.0033754219      -1.7100617603      1814.86      -12.61
27.5034379297      -1.82025425936      3034.02      2.51
28.0035004376      -1.93881652754      3067.97      -3.12
28.5035629454      -2.06627398466      3085.30      4.55
29.0036254532      -2.20311809474      3151.64      -1.92
29.503687961      -2.34977768668      3166.98      5.48
30.0037504688      -2.50658167356      3170.63      -1.42
30.5038129766      -2.67371197017      3196.37      1.12
31.0038754844      -2.85114590836      3488.49      -3.88
31.5039379922      -3.03858843914      3568.24      8.88
32.0040005001      -3.23539607192      3727.00      -1.63
32.5040630079      -3.44049698565      3799.18      -5.30
33.0041255157       -3.6523150829
33.5041880235       -3.86870971235
34.0042505313       -4.08694668635
34.5043130391       -4.3037188231
35.0043755469       -4.51523375761
35.5044380548       -4.71738122166
36.0045005626       -4.90598007407
36.5045630704       -5.07708756667
37.0046255782       -5.22733297546
37.504688086       -5.35422092377
38.0047505938       -5.45634366811
38.5048131016       -5.53345138621
39.0048756095       -5.58635492696
39.5049381173       -5.61667016514
40.0050006251       -5.62644677632
40.5050631329       -5.61774727268
41.0051256407       -5.59224950004
41.5051881485       -5.55093821551
42.0052506563       -5.49393337822
42.5053131641       -5.42047956863
43.005375672       -5.32909614096
43.5054381798       -5.21786330318
44.0055006876       -5.08479714806
44.5055631954       -4.92824992825
45.0056257032       -4.74726518755
45.505688211       -4.54182477701
46.0057507188       -4.31294684837
46.5058132267       -4.06262586251
47.0058757345       -3.79363843425
47.5059382423       -3.50926284297
48.0060007501       -3.21296931359
48.5060632579       -2.90813257805
49.0061257657       -2.59780254473
49.5061882735       -2.28454988731
50.0062507813       -1.97038675211
50.5063132892       -1.65675168493
51.006375797       -1.34454276084
51.5064383048       -1.03418252256
52.0065008126       -0.72570083494
52.5065633204       -0.418825443862
53.0066258282       -0.11307368216
53.506688336       0.192158287039
54.0067508439       0.49751034256
54.5068133517       0.803578119935
55.0068758595       1.11083830432
55.5069383673       1.41958099373
56.0070008751       1.7298518377
56.5070633829       2.04140788395
57.0071258907       2.35369168747
57.5071883985       2.66582750621
58.0072509064       2.97664066811
58.5073134142       3.28469625742
59.007375922       3.58834688812
59.5074384298       3.88577346387
60.0075009376       4.17500035789
60.5075634454       4.45387018453
61.0076259532       4.71997450435
61.5076884611       4.97055382927
62.0077509689       5.2023986479
62.5078134767       5.41179661872
63.0078759845       5.59457366415
63.5079384923       5.74626490348
64.0080010001       5.86242544785
64.5080635079       5.93905574528
65.0081260158       5.97308026083
65.5081885236       5.96279307056
66.0082510314       5.90817953575
66.5083135392       5.81104396032
67.008376047       5.67491442663
67.5084385548       5.50474507388
68.0085010626       5.30647713051
68.5085635704       5.08654115245
69.0086260783       4.85138083811
69.5086885861       4.60705870699
70.0087510939       4.35897567303
70.5088136017       4.1117096631
71.0088761095       3.86895895049
71.5089386173       3.63356559642
72.0090011251       3.40759202665
72.509063633       3.19242662845
73.0091261408       2.9888996209
73.5091886486       2.79739630312
74.0092511564       2.61795993634
74.5093136642       2.45038048048
75.009376172       2.29426814105
75.5094386798       2.14911237417
76.0095011876       2.01432790548
76.5095636955       1.88928969142
77.0096262033       1.77335879079
77.5096887111       1.66590096843
78.0097512189       1.5662996197
78.5098137267       1.47396434575
79.0098762345       1.38833626058
79.5099387423       1.30889088802
80.0100012502       1.23513931765
80.510063758       1.1666281327
81.0101262658       1.10293849787
81.5101887736       1.0436846963
82.0102512814       0.988512328666
82.5103137892       0.937096328412
83.010376297       0.889138902867
83.5104388049       0.844367476728
84.0105013127       0.802532689498
84.5105638205       0.763406480393
85.0106263283       0.726780281012
85.5106888361       0.692463326579
86.0107513439       0.660281089923
86.5108138517       0.630073837761
87.0108763595       0.601695305757
87.5109388674       0.575011486871
88.0110013752       0.549899526332
88.511063883       0.526246715967
89.0111263908       0.503949580395
89.5111888986       0.482913047684
90.0112514064       0.463049697269
90.5113139142       0.444279078334
91.0113764221       0.426527092234
91.5114389299       0.409725433029
92.0115014377       0.393811080633
92.5115639455       0.378725841559
93.0116264533       0.364415932673
93.5116889611       0.350831603788
94.0117514689       0.33792679531
94.5118139767       0.325658827536
95.0118764846       0.313988118489
95.5119389924       0.302877927533
96.0120015002       0.292294122238
96.512064008       0.282204966255
97.0121265158       0.272580926146
97.5121890236       0.263394495367
98.0122515314       0.25462003374
98.5123140393       0.246233620945
99.0123765471       0.238212922691
99.5124390549       0.230537068385
100.012501563       0.223186539204
100.512564071       0.216143065612
101.012626578       0.209389533438
101.512689086       0.202909897738
102.012751594       0.196689103717
102.512814102       0.190713014077
103.01287661       0.184968342221
103.512939117       0.179442590761
104.013001625       0.174123994896
104.513064133       0.169001470195
105.013126641       0.16406456442
105.513189149       0.159303413032
106.013251656       0.154708698058
106.513314164       0.150271610026
107.013376672       0.145983812721
107.51343918       0.141837410503
108.013501688       0.137824917983
108.513564196       0.133939231851
109.013626703       0.130173604685
109.513689211       0.126521620555
110.013751719       0.122977172302
110.513814227       0.119534440325
111.013876735       0.116187872766
111.513939242       0.112932166972
112.01400175       0.109762252124
112.514064258       0.106673272947
113.014126766       0.103660574392
113.514189274       0.100719687225
114.014251781       0.0978463144312
114.514314289       0.0950363183767
115.014376797       0.0922857086458
115.514439305       0.0895906305062
116.014501813       0.0869473539351
116.514564321       0.0843522631569
117.014626828       0.0818018466392
117.514689336       0.0792926874999
118.014751844       0.0768214542806
118.514814352       0.074384892041
119.01487686       0.0719798137362
119.514939367       0.0696030918329
120.015001875       0.0672516501303
120.515064383       0.0649224557445
121.015126891       0.0626125112226
121.515189399       0.0603188467483
122.015251906       0.0580385124046
122.515314414       0.0557685704562
123.015376922       0.0535060876171
123.51543943       0.0512481272656
124.015501938       0.0489917415688
124.515564446       0.0467339634798
125.015626953       0.044471798566
125.515689461       0.0422022166271
126.015751969       0.0399221430605
126.515814477       0.0376284499258
127.015876985       0.0353179466613
127.515939492       0.0329873704
128.016002       0.0306333758285
128.516064508       0.0282525245302
129.016127016       0.0258412737466
129.516189524       0.0233959644885
130.016252032       0.020912808919
130.516314539       0.0183878769267
131.016377047       0.0158170817986
131.516439555       0.0131961648929
132.016502063       0.0105206792044
132.516564571       0.0077859717013
133.016627078       0.00498716430414
133.516689586       0.00211913336131
134.016752094       -0.000823512538709
134.516814602       -0.003846456594
135.01687711       -0.00695569985004
135.516939617       -0.0101575895101
136.017002125       -0.0134588497344
136.517064633       -0.0168666151919
137.017127141       -0.0203884676585
137.517189649       -0.0240324759865
138.017252157       -0.0278072398053
138.517314664       -0.0317219373524
139.017377172       -0.0357863778769
139.51743968       -0.0400110591056
140.017502188       -0.04440723031
140.517564696       -0.0489869615741
141.017627203       -0.0537632199174
141.517689711       -0.0587499529974
142.017752219       -0.0639621811793
142.517814727       -0.0694160988356
143.017877235       -0.0751291858071
143.517939742       -0.0811203300277
144.01800225       -0.0874099623821
144.518064758       -0.0940202049163
145.018127266       -0.100975033563
145.518189774       -0.108300456545
146.018252282       -0.116024709601
146.518314789       -0.124178469055
147.018377297       -0.132795083611
147.518439805       -0.141910825395
148.018502313       -0.151565160333
148.518564821       -0.161801037219
149.018627328       -0.172665193782
149.518689836       -0.184208476624
150.018752344       -0.196486169808
150.518814852       -0.209558324114
151.01887736       -0.223490075082
151.518939867       -0.238351932848
152.019002375       -0.254220019851
152.519064883       -0.271176223426
153.019127391       -0.289308218414
153.519189899       -0.30870929962
154.019252407       -0.32947794457
154.519314914       -0.351717002779
155.019377422       -0.375532378355
155.51943993       -0.401031038179
156.019502438       -0.428318139072
156.519564946       -0.457493027085
157.019627453       -0.488643825564
157.519689961       -0.521840305586
158.019752469       -0.557124738103
158.519814977       -0.594500484738
159.019877485       -0.633918225527
159.519939992       -0.675259986492
160.0200025       -0.718321559842
160.520065008       -0.762794536339
161.020127516       -0.808249990484
161.520190024       -0.854126803594
162.020252532       -0.899728497931
162.520315039       -0.94423297149
163.020377547       -0.986719236891
163.520440055       -1.02621373681
164.020502563       -1.06175579061
164.520565071       -1.09247745235
165.020627578       -1.11768842696
165.520690086       -1.1369531848
166.020752594       -1.150146626
166.520815102       -1.15747750109
167.02087761       -1.15947490586
167.520940118       -1.15694077369
168.021002625       -1.15087795404
168.521065133       -1.14240718156
169.021127641       -1.13268626838
169.521190149       -1.12284185047
170.021252657       -1.11391949356
170.521315164       -1.10685348327
171.021377672       -1.10245424631
171.52144018       -1.10140945026
172.021502688       -1.10429425292
172.521565196       -1.11158649961
173.021627703       -1.12368344821
173.521690211       -1.14091748933
174.021752719       -1.16356911041
174.521815227       -1.19187593462
175.021877735       -1.22603703556
175.521940243       -1.26621191914
176.02200275       -1.31251363082
176.522065258       -1.36499545358
177.022127766       -1.42363068502
177.522190274       -1.48828510656
178.022252782       -1.55868208395
178.522315289       -1.63436088432
179.022377797       -1.71462988009
179.522440305       -1.79851792626
180.022502813       -1.88472935057
180.522565321       -1.97161051069
181.022627828       -2.05713828857
181.522690336       -2.1389423848
182.022752844       -2.21437269636
182.522815352       -2.28061919912
183.02287786       -2.33488389213
183.522940368       -2.37459299457
184.023002875       -2.39762500503
184.523065383       -2.40252036453
185.023127891       -2.38863565548
185.523190399       -2.35621223318
186.023252907       -2.3063451724
186.523315414       -2.24085889603
187.023377922       -2.16211428902
187.52344043       -2.07278287636
188.023502938       -1.97562446319
188.523565446       -1.87329703095
189.023627953       -1.76821562936
189.523690461       -1.66246479647
190.023752969       -1.55775967405
190.523815477       -1.45544561545
191.023877985       -1.35652437452
191.523940493       -1.26169581694
192.024003       -1.17140629044
192.524065508       -1.08589736441
193.024128016       -1.00525100484
193.524190524       -0.929429116376
194.024253032       -0.858306704366
194.524315539       -0.791698753108
195.024378047       -0.729381389732
195.524440555       -0.671108119216
196.024503063       -0.616621967221
196.524565571       -0.565664323827
197.024628079       -0.517981190383
197.524690586       -0.473327423723
198.024753094       -0.431469464676
198.524815602       -0.392186940049
199.02487811       -0.355273443188
199.524940618       -0.320536728324
200.025003125       -0.287798497485
200.525065633       -0.256893913998
201.025128141       -0.22767094177
201.525190649       -0.199989582665
202.025253157       -0.173721063938
202.525315664       -0.148747012273
203.025378172       -0.124958639559
203.52544068       -0.102255957049
204.025503188       -0.0805470283988
204.525565696       -0.0597472676076
205.025628204       -0.0397787847306
205.525690711       -0.0205697800099
206.025753219       -0.00205398557424
206.525815727       0.0158298471358
207.025878235       0.0331384166744
207.525940743       0.0499243004333
208.02600325       0.0662363459856
208.526065758       0.0821200279219
209.026128266       0.0976177731103
209.526190774       0.112769257195
210.026253282       0.127611674998
210.526315789       0.142179987305
211.026378297       0.156507146368
211.526440805       0.170624302234
212.026503313       0.184560991878
212.526565821       0.198345312923
213.026628329       0.212004083594
213.526690836       0.2255629904
214.026753344       0.239046724903
214.526815852       0.25247911083
215.02687836       0.265883222654
215.526940868       0.279281496695
216.027003375       0.292695835686
216.527065883       0.30614770769
217.027128391       0.319658240173
217.527190899       0.333248309989
218.027253407       0.346938629978
218.527315914       0.360749832831
219.027378422       0.37470255286
219.52744093       0.388817506241
220.027503438       0.403115570327
220.527565946       0.41761786256
221.027628454       0.432345819538
221.527690961       0.447321276764
222.027753469       0.462566549609
222.527815977       0.478104516022
223.027878485       0.493958701547
223.527940993       0.510153367184
224.0280035       0.526713600699
224.528066008       0.543665411965
225.028128516       0.561035832992
225.528191024       0.578853023303
226.028253532       0.597146381393
226.52831604       0.615946663021
227.028378547       0.635286107195
227.528441055       0.655198570711
228.028503563       0.675719672262
228.528566071       0.696886947142
229.028628579       0.718740013741
229.528691086       0.741320753075
230.028753594       0.764673502771
230.528816102       0.788845267031
231.02887861       0.81388594427
231.528941118       0.839848574314
232.029003625       0.8667896072
232.529066133       0.894769195892
233.029128641       0.923851515428
233.529191149       0.954105111319
234.029253657       0.985603280304
234.529316165       1.01842448694
235.029378672       1.05265281984
235.52944118       1.08837849184
236.029503688       1.12569838888
236.529566196       1.16471667269
237.029628704       1.20554544339
237.529691211       1.24830546826
238.029753719       1.2931269839
238.529816227       1.34015057987
239.029878735       1.38952817244
239.529941243       1.4414240782
240.03000375       1.49601619821
240.530066258       1.55349732443
241.030128766       1.614076581
241.530191274       1.67798101444
242.030253782       1.74545734746
242.53031629       1.81677391245
243.030378797       1.89222278119
243.530441305       1.9721221083
244.030503813       2.05681870575
244.530566321       2.14669086552
245.030628829       2.2421514462
245.530691336       2.34365123643
246.030753844       2.4516826038
246.530816352       2.56678343083
247.03087886       2.68954132897
247.530941368       2.82059810643
248.031003875       2.96065444405
248.531066383       3.11047470286
249.031128891       3.27089174549
249.531191399       3.44281159639
250.031253907       3.62721768914
250.531316415       3.82517434647
251.031378922       4.03782900252
251.53144143       4.26641249959
252.031503938       4.51223656117
252.531566446       4.77668725037
253.031628954       5.06121285514
253.531691461       5.36730419172
254.031753969       5.69646478252
254.531816477       6.05016775452
255.031878985       6.42979565348
255.531941493       6.83655874874
256.032004001       7.27138694467
256.532066508       7.73479033613
257.032129016       8.22668407851
257.532191524       8.74617506024
258.032254032       9.29131147347
258.53231654       9.85880245755
259.032379047       10.4437241302
259.532441555       11.0392406959
260.032504063       11.636384177
260.532566571       12.2239513325
261.032629079       12.7885870871
261.532691586       13.31512378
262.032754094       13.7872274094
262.532816602       14.1883604834
263.03287911       14.5030071275
263.532941618       14.7180309023
