#  x                 y             frequency           rot. str.
0.0      0.308179625416      37.24      10.53
0.500062507813      0.317591197789      52.80      2.01
1.00012501563      0.327420425945      66.69      -15.37
1.50018752344      0.337690474055      86.77      -5.62
2.00025003125      0.348426050123      159.68      -1.06
2.50031253907      0.359653526287      215.18      1.86
3.00037504688      0.371401069829      256.10      28.17
3.50043755469      0.383698785944      309.47      39.86
4.00050006251      0.396578873449      322.07      -6.36
4.50056257032      0.410075794743      338.73      -3.39
5.00062507813      0.424226461465      368.61      29.40
5.50068758595      0.439070437452      422.35      16.19
6.00075009376      0.454650160793      424.54      -4.68
6.50081260158      0.471011186954      435.85      -15.72
7.00087510939      0.488202455195      485.48      10.10
7.5009376172      0.506276580705      528.53      -39.61
8.00100012502      0.52529017521      562.94      43.47
8.50106263283      0.545304199067      570.19      44.12
9.00112514064      0.566384348221      648.40      -18.77
9.50118764846      0.588601479758      660.03      0.82
10.0012501563      0.612032080238      724.71      -17.92
10.5013126641      0.636758781401      747.86      -32.14
11.0013751719      0.662870928388      768.10      27.64
11.5014376797      0.690465206132      819.39      -31.03
12.0015001875      0.719646330219      825.52      -75.60
12.5015626953      0.750527809114      835.13      77.66
13.0016252032      0.783232785397      856.33      -8.16
13.501687711      0.817894964342      874.95      -14.41
14.0017502188      0.854659638977      926.63      -9.00
14.5018127266      0.893684821514      953.50      -3.99
15.0018752344      0.935142491823      955.03      -2.30
15.5019377422      0.979219974344      988.06      110.67
16.00200025      1.02612145543      1036.28      0.82
16.5020627578      1.07606965357      1092.63      24.95
17.0021252657      1.12930765513      1128.78      -80.38
17.5021877735      1.18610092782      1149.06      -14.35
18.0022502813      1.24673952343      1189.88      13.65
18.5023127891      1.31154047924      1200.50      6.13
19.0023752969      1.38085042477      1211.95      4.93
19.5024378047      1.45504839516      1220.87      53.24
20.0025003125      1.53454884563      1235.73      -2.27
20.5025628204      1.61980485037      1270.61      19.04
21.0026253282      1.71131145407      1288.39      -11.78
21.502687836      1.80960912328      1351.02      9.63
22.0027503438      1.91528721478      1353.60      -33.89
22.5028128516      2.02898733866      1367.62      2.11
23.0028753594      2.15140643911      1376.22      -12.54
23.5029378672      2.28329934389      1428.81      23.42
24.003000375      2.42548043726      1475.28      2.76
24.5030628829      2.5788239857      1488.65      3.97
25.0031253907      2.74426248334      1551.60      6.81
25.5031878985      2.92278217632      1634.14      9.70
26.0032504063      3.11541466521      1657.89      -73.66
26.5033129141      3.32322316526      1659.20      30.66
27.0033754219      3.54728162376      1800.40      -157.48
27.5034379297      3.78864445881      3037.66      13.90
28.0035004376      4.04830421776      3054.79      0.21
28.5035629454      4.32713400507      3087.02      -1.46
29.0036254532      4.62581119062      3151.67      1.96
29.503687961      4.94471883186      3165.95      -7.15
30.0037504688      5.28382166045      3178.11      2.44
30.5038129766      5.64251472888      3195.78      -2.16
31.0038754844      6.01944531434      3493.63      1.07
31.5039379922      6.41231292447      3574.05      -6.73
32.0040005001      6.8176586736      3724.55      -16.79
32.5040630079      7.23066404885      3799.44      7.43
33.0041255157       7.64498967254
33.5041880235       8.05269550316
34.0042505313       8.44429191926
34.5043130391       8.80897170267
35.0043755469       9.1350607934
35.5044380548       9.4106968663
36.0045005626       9.62469966971
36.5045630704       9.7675432296
37.0046255782       9.83229264742
37.504688086       9.81534620002
38.0047505938       9.71684127084
38.5048131016       9.54064169184
39.0048756095       9.29390906731
39.5049381173       8.98634479297
40.0050006251       8.62924636915
40.5050631329       8.23453687174
41.0051256407       7.8139024164
41.5051881485       7.37812413518
42.0052506563       6.93663744843
42.5053131641       6.49730705987
43.005375672       6.06637822377
43.5054381798       5.6485534811
44.0055006876       5.2471451282
44.5055631954       4.8642618945
45.0056257032       4.50099917332
45.505688211       4.15761272488
46.0057507188       3.8336646053
46.5058132267       3.52813680836
47.0058757345       3.23951300605
47.5059382423       2.96583236567
48.0060007501       2.70472222936
48.5060632579       2.45341881815
49.0061257657       2.20878711849
49.5061882735       1.96735240215
50.0062507813       1.72535572116
50.5063132892       1.47884328883
51.006375797       1.22379414439
51.5064383048       0.95628187189
52.0065008126       0.672655682211
52.5065633204       0.369716622954
53.0066258282       0.0448596467945
53.506688336       -0.303845300138
54.0067508439       -0.677649492404
54.5068133517       -1.07719922607
55.0068758595       -1.50267088442
55.5069383673       -1.95393894499
56.0070008751       -2.43074428951
56.5070633829       -2.93283346526
57.0071258907       -3.46004778772
57.5071883985       -4.01235080274
58.0072509064       -4.58979075212
58.5073134142       -5.19239992089
59.007375922       -5.82003518011
59.5074384298       -6.47216475853
60.0075009376       -7.14760678725
60.5075634454       -7.84422699765
61.0076259532       -8.55860743298
61.5076884611       -9.28570608226
62.0077509689       -10.0185392106
62.5078134767       -10.7479329656
63.0078759845       -11.4624059754
63.5079384923       -12.1482552762
64.0080010001       -12.7899170297
64.5080635079       -13.3706533688
65.0081260158       -13.8735719681
65.5081885236       -14.2829170725
66.0082510314       -14.5854920104
66.5083135392       -14.7720068075
67.008376047       -14.8381179301
67.5084385548       -14.7849600656
68.0085010626       -14.6190616436
68.5085635704       -14.3516618154
69.0086260783       -13.9975668644
69.5086885861       -13.5737611699
70.0087510939       -13.0980034523
70.5088136017       -12.5875989453
71.0088761095       -12.0584655482
71.5089386173       -11.5245342728
72.0090011251       -10.9974619403
72.509063633       -10.4865962249
73.0091261408       -9.99911896218
73.5091886486       -9.54029676092
74.0092511564       -9.11378067177
74.5093136642       -8.72191258483
75.009376172       -8.36601103755
75.5094386798       -8.04662120247
76.0095011876       -7.76372247371
76.5095636955       -7.5168925969
77.0096262033       -7.30543035555
77.5096887111       -7.12844015405
78.0097512189       -6.98488205668
78.5098137267       -6.87359045978
79.0098762345       -6.7932639895
79.5099387423       -6.7424287582
80.0100012502       -6.71937707366
80.510063758       -6.72208436971
81.0101262658       -6.74810880214
81.5101887736       -6.79448087239
82.0102512814       -6.85759468781
82.5103137892       -6.93311779419
83.010376297       -7.01594209583
83.5104388049       -7.10020259569
84.0105013127       -7.17939111375
84.5105638205       -7.24658594137
85.0106263283       -7.29480337725
85.5106888361       -7.31745331633
86.0107513439       -7.30885235703
86.5108138517       -7.26472218883
87.0108763595       -7.18258839381
87.5109388674       -7.06200319768
88.0110013752       -6.90454628678
88.511063883       -6.71360280689
89.0111263908       -6.4939629434
89.5111888986       -6.25131878781
90.0112514064       -5.99174345611
90.5113139142       -5.72122547465
91.0113764221       -5.44530607475
91.5114389299       -5.16883831967
92.0115014377       -4.89586299572
92.5115639455       -4.62958092086
93.0116264533       -4.37239493348
93.5116889611       -4.12599518961
94.0117514689       -3.89146569799
94.5118139767       -3.66939581256
95.0118764846       -3.45998604619
95.5119389924       -3.26314222755
96.0120015002       -3.07855543914
96.512064008       -2.90576743006
97.0121265158       -2.74422252471
97.5121890236       -2.59330770732
98.0122515314       -2.45238278172
98.5123140393       -2.32080246275
99.0123765471       -2.19793207441
99.5124390549       -2.08315829034
100.012501563       -1.9758961042
100.512564071       -1.8755929857
101.012626578       -1.7817309757
101.512689086       -1.69382730403
102.012751594       -1.61143397526
102.512814102       -1.53413665737
103.01287661       -1.46155312218
103.512939117       -1.3933314194
104.013001625       -1.32914791547
104.513064133       -1.26870529013
105.013126641       -1.21173055446
105.513189149       -1.15797313352
106.013251656       -1.10720304053
106.513314164       -1.05920915891
107.013376672       -1.01379763982
107.51343918       -0.97079041794
108.013501688       -0.930023843623
108.513564196       -0.891347427696
109.013626703       -0.854622693085
109.513689211       -0.819722126784
110.013751719       -0.786528225146
110.513814227       -0.754932625391
111.013876735       -0.724835316329
111.513939242       -0.696143921585
112.01400175       -0.668773048944
112.514064258       -0.642643699868
113.014126766       -0.617682733661
113.514189274       -0.593822381196
114.014251781       -0.570999803549
114.514314289       -0.549156691292
115.014376797       -0.528238900597
115.514439305       -0.508196122646
116.014501813       -0.48898158319
116.514564321       -0.470551769403
117.014626828       -0.45286618147
117.514689336       -0.435887106571
118.014751844       -0.419579413205
118.514814352       -0.40391036396
119.01487686       -0.388849445064
119.514939367       -0.374368211193
120.015001875       -0.3604401442
120.515064383       -0.347040524536
121.015126891       -0.334146314286
121.515189399       -0.321736050847
122.015251906       -0.309789750386
122.515314414       -0.298288820288
123.015376922       -0.287215979934
123.51543943       -0.276555189172
124.015501938       -0.266291583966
124.515564446       -0.256411418738
125.015626953       -0.246902014996
125.515689461       -0.237751715895
126.015751969       -0.228949846428
126.515814477       -0.220486678992
127.015876985       -0.21235340413
127.515939492       -0.204542106288
128.016002       -0.19704574447
128.516064508       -0.189858137717
129.016127016       -0.182973955391
129.516189524       -0.176388712267
130.016252032       -0.1700987685
130.516314539       -0.164101334559
131.016377047       -0.158394481296
131.516439555       -0.152977155319
132.016502063       -0.147849199947
132.516564571       -0.143011382027
133.016627078       -0.138465424983
133.516689586       -0.134214048513
134.016752094       -0.130261015412
134.516814602       -0.126611186094
135.01687711       -0.123270581406
135.516939617       -0.120246454469
136.017002125       -0.117547372309
136.517064633       -0.115183308151
137.017127141       -0.113165745317
137.517189649       -0.111507793769
138.017252157       -0.110224320391
138.517314664       -0.109332094181
139.017377172       -0.108849947566
139.51743968       -0.108798955057
140.017502188       -0.109202630443
140.517564696       -0.110087143596
141.017627203       -0.111481557793
141.517689711       -0.113418088082
142.017752219       -0.115932380747
142.517814727       -0.119063813088
143.017877235       -0.122855811633
143.517939742       -0.127356185275
144.01800225       -0.132617467559
144.518064758       -0.138697259253
145.018127266       -0.145658558099
145.518189774       -0.153570056947
146.018252282       -0.162506383841
146.518314789       -0.172548247596
147.018377297       -0.183782439218
147.518439805       -0.196301622542
148.018502313       -0.210203825828
148.518564821       -0.225591518982
149.018627328       -0.242570127982
149.518689836       -0.261245798898
150.018752344       -0.281722179438
150.518814852       -0.304095938859
151.01887736       -0.328450702916
151.518939867       -0.354849049197
152.019002375       -0.383322206145
152.519064883       -0.413857151225
153.019127391       -0.446380945054
153.519189899       -0.480742413449
154.019252407       -0.516691747506
154.519314914       -0.553859273911
155.019377422       -0.591735561728
155.51943993       -0.629656115048
156.019502438       -0.666794972555
156.519564946       -0.702172260809
157.019627453       -0.734680646592
157.519689961       -0.763134176995
158.019752469       -0.786339830158
158.519814977       -0.803187357733
159.019877485       -0.812747565123
159.519939992       -0.81436466986
160.0200025       -0.807726696785
160.520065008       -0.792900320673
161.020127516       -0.770323042782
161.520190024       -0.740754319035
162.020252532       -0.705195467725
162.520315039       -0.664793334558
163.020377547       -0.620743582325
163.520440055       -0.574206572621
164.020502563       -0.526243747374
164.520565071       -0.477777079121
165.020627578       -0.429569925391
165.520690086       -0.382225088871
166.020752594       -0.336194972038
166.520815102       -0.291798972944
167.02087761       -0.249244167857
167.520940118       -0.208646432244
168.021002625       -0.170050187532
168.521065133       -0.133445794225
169.021127641       -0.0987842101566
169.521190149       -0.0659889194229
170.021252657       -0.0349653588922
170.521315164       -0.00560817381097
171.021377672       0.0221933368434
171.52144018       0.0485512395635
172.021502688       0.0735761418309
172.521565196       0.0973752618219
173.021627703       0.120051176763
173.521690211       0.141701077156
174.021752719       0.162416391142
174.521815227       0.182282674138
175.021877735       0.201379683928
175.521940243       0.219781581266
176.02200275       0.237557211558
176.522065258       0.254770435201
177.022127766       0.271480483224
177.522190274       0.287742321798
178.022252782       0.303607014303
178.522315289       0.319122073423
179.022377797       0.334331798566
179.522440305       0.349277595879
180.022502813       0.363998279598
180.522565321       0.37853035448
181.022627828       0.392908279757
181.522690336       0.407164715532
182.022752844       0.421330752852
182.522815352       0.435436128838
183.02287786       0.449509428413
183.522940368       0.46357827417
184.023002875       0.477669505956
184.523065383       0.49180935173
185.023127891       0.506023591228
185.523190399       0.520337713935
186.023252907       0.534777072855
186.523315414       0.549367035514
187.023377922       0.56413313365
187.52344043       0.579101213022
188.023502938       0.594297584768
188.523565446       0.609749179789
189.023627953       0.625483707626
189.523690461       0.641529821396
190.023752969       0.657917290349
190.523815477       0.674677181737
191.023877985       0.691842053733
191.523940493       0.709446161246
192.024003       0.72752567658
192.524065508       0.746118927
193.024128016       0.765266651356
193.524190524       0.78501227805
194.024253032       0.805402226683
194.524315539       0.826486235785
195.024378047       0.848317719044
195.524440555       0.870954152337
196.024503063       0.894457493703
196.524565571       0.918894638003
197.024628079       0.944337907429
197.524690586       0.970865578062
198.024753094       0.998562441318
198.524815602       1.02752039707
199.02487811       1.0578390724
199.524940618       1.08962645601
200.025003125       1.12299953263
200.525065633       1.1580848947
201.025128141       1.19501929809
201.525190649       1.23395011557
202.025253157       1.27503562383
202.525315664       1.31844503673
203.025378172       1.36435816761
203.52544068       1.41296456524
204.025503188       1.46446192057
204.525565696       1.51905348301
205.025628204       1.57694415633
205.525690711       1.63833486579
206.025753219       1.70341470589
206.525815727       1.77235030059
207.025878235       1.84527175324
207.525940743       1.92225456124
208.02600325       2.00329696339
208.526065758       2.08829243866
209.026128266       2.176997562
209.526190774       2.26899623157
210.026253282       2.36366248448
210.526315789       2.46012572739
211.026378297       2.55724411123
211.526440805       2.65359365629
212.026503313       2.74748199335
212.526565821       2.83699538185
213.026628329       2.92008507133
213.526690836       2.99469347495
214.026753344       3.05891227234
214.526815852       3.11115502299
215.02687836       3.15031901167
215.526940868       3.17590818575
216.027003375       3.1880934532
216.527065883       3.18769805548
217.027128391       3.1761110731
217.527190899       3.1551464804
218.027253407       3.12687410669
218.527315914       3.09345031773
219.027378422       3.05697106796
219.52744093       3.01936106737
220.027503438       2.98230345208
220.527565946       2.9472069569
221.027628454       2.91520318467
221.527690961       2.88716500047
222.027753469       2.86373755327
222.527815977       2.84537501539
223.027878485       2.83237807143
223.527940993       2.82492900287
224.0280035       2.82312267119
224.528066008       2.82699274681
225.028128516       2.83653320568
225.528191024       2.85171550114
226.028253532       2.87250200022
226.52831604       2.89885632426
227.028378547       2.93075120725
227.528441055       2.9681744202
228.028503563       3.01113322976
228.528566071       3.0596577786
229.028628579       3.11380370138
229.528691086       3.17365422653
230.028753594       3.23932196133
230.528816102       3.31095051574
231.02887861       3.38871608707
231.528941118       3.47282910235
232.029003625       3.5635359962
232.529066133       3.66112118808
233.029128641       3.76590931289
233.529191149       3.87826775185
234.029253657       3.99860950623
234.529316165       4.1273964532
235.029378672       4.26514302143
235.52944118       4.41242032212
236.029503688       4.56986076979
236.529566196       4.73816322444
237.029628704       4.91809868292
237.529691211       5.11051654072
238.029753719       5.31635143543
238.529816227       5.5366306679
239.029878735       5.77248217451
239.529941243       6.02514299197
240.03000375       6.29596811002
240.530066258       6.58643954426
241.030128766       6.89817537367
241.530191274       7.23293836889
242.030253782       7.5926436772
242.53031629       7.97936481748
243.030378797       8.39533695692
243.530441305       8.84295607498
244.030503813       9.32477214712
244.530566321       9.84347388102
245.030628829       10.4018617902
245.530691336       11.0028054804
246.030753844       11.6491799546
246.530816352       12.3437745399
247.03087886       13.0891667896
247.530941368       13.887552579
248.031003875       14.7405228845
248.531066383       15.6487778891
249.031128891       16.6117708028
249.531191399       17.6272781028
250.031253907       18.6909010051
250.531316415       19.7955161873
251.031378922       20.9307130652
251.53144143       22.0822802495
252.031503938       23.2318330045
252.531566446       24.3567011203
253.031628954       25.4302128988
253.531691461       26.4225026415
254.031753969       27.3019223957
254.531816477       28.0370460862
255.031878985       28.5991223386
255.531941493       28.9646887126
256.032004001       29.1179504748
256.532066508       29.05250083
257.032129016       28.7720459587
257.532191524       28.2899860297
258.032254032       27.6279386854
258.53231654       26.8134990321
259.032379047       25.877647233
259.532441555       24.8522177567
260.032504063       23.7677529178
260.532566571       22.6519239474
261.032629079       21.5285641892
261.532691586       20.4172542559
262.032754094       19.3333401469
262.532816602       18.2882478422
263.03287911       17.2899689073
263.532941618       16.3436172956
264.033004126       15.4519870076
264.533066633       14.6160669722
265.033129141       13.8354905134
265.533191649       13.108911556
