#  x                 y             frequency           rot. str.
0.0      0.88157329685      25.75      16.53
0.500062507813      0.922234915194      46.37      -21.39
1.00012501563      0.965334259225      66.07      7.02
1.50018752344      1.01105200335      70.35      -2.47
2.00025003125      1.05958459702      177.83      -29.80
2.50031253907      1.11114581462      188.02      -0.25
3.00037504688      1.16596846745      203.26      22.93
3.50043755469      1.22430629415      274.27      0.85
4.00050006251      1.28643604681      304.34      4.95
4.50056257032      1.35265979136      340.14      -16.85
5.00062507813      1.42330744087      363.58      6.92
5.50068758595      1.4987395413      393.69      32.72
6.00075009376      1.57935032808      422.51      -2.80
6.50081260158      1.66557107088      432.51      -14.72
7.00087510939      1.75787372083      484.06      -53.73
7.5009376172      1.85677486953      499.94      37.18
8.00100012502      1.96284002157      507.94      4.24
8.50106263283      2.07668817059      554.25      -16.05
9.00112514064      2.19899665227      659.22      2.95
9.50118764846      2.33050622365      670.03      38.95
10.0012501563      2.47202628492      705.09      -16.47
10.5013126641      2.62444011377      742.18      5.45
11.0013751719      2.78870991961      795.13      -1.42
11.5014376797      2.96588144044      816.70      -21.05
12.0015001875      3.1570876917      838.15      88.20
12.5015626953      3.36355132687      852.49      -103.46
13.0016252032      3.58658487327      872.86      -16.47
13.501687711      3.82758785238      881.92      -4.29
14.0017502188      4.08803946999      928.81      53.58
14.5018127266      4.36948515432      947.87      3.40
15.0018752344      4.67351472099      959.21      10.99
15.5019377422      5.00172934777      991.39      -33.86
16.00200025      5.35569386075      1036.12      0.30
16.5020627578      5.73687010147      1117.74      -25.95
17.0021252657      6.14652643815      1126.54      45.77
17.5021877735      6.58561794543      1149.83      -28.76
18.0022502813      7.05463164131      1159.55      -22.43
18.5023127891      7.55339180162      1191.56      35.13
19.0023752969      8.08082228828      1200.29      5.71
19.5024378047      8.63466670085      1235.29      -5.32
20.0025003125      9.21117375599      1263.20      96.24
20.5025628204      9.80476529955      1287.40      -28.69
21.0026253282      10.4077180119      1295.31      7.84
21.502687836      11.0099064397      1307.76      -83.55
22.0027503438      11.5986720312      1350.76      -32.15
22.5028128516      12.1588955897      1361.71      4.55
23.0028753594      12.6733518149      1367.26      -9.45
23.5029378672      13.1234060812      1421.86      25.45
24.003000375      13.4900689872      1475.02      -5.26
24.5030628829      13.755353897      1489.54      -2.20
25.0031253907      13.9037982739      1551.63      12.45
25.5031878985      13.9239346803      1635.47      -1.39
26.0032504063      13.8094615397      1658.67      -3.54
26.5033129141      13.5598901945      1671.20      17.56
27.0033754219      13.1805361952      1839.01      -22.36
27.5034379297      12.6818557082      3024.46      16.69
28.0035004376      12.0782605798      3037.74      -23.83
28.5035629454      11.3866362714      3074.83      4.34
29.0036254532      10.6248124528      3152.15      -2.84
29.503687961      9.81019960353      3153.73      0.25
30.0037504688      8.95872976723      3195.46      -0.51
30.5038129766      8.08415527638      3201.83      2.08
31.0038754844      7.19768929605      3477.06      -7.74
31.5039379922      6.30792784836      3552.38      11.67
32.0040005001      5.4209748655      3768.70      -4.21
32.5040630079      4.54069341553      3799.31      5.13
33.0041255157       3.66901925992
33.5041880235       2.80629020551
34.0042505313       1.95156156976
34.5043130391       1.1028920872
35.0043755469       0.257595038417
35.5044380548       -0.587543443197
36.0045005626       -1.43607234632
36.5045630704       -2.29170074312
37.0046255782       -3.15812888487
37.504688086       -4.03887378726
38.0047505938       -4.93707743301
38.5048131016       -5.85528609303
39.0048756095       -6.79519053138
39.5049381173       -7.75731955747
40.0050006251       -8.74068431441
40.5050631329       -9.74237880947
41.0051256407       -10.7571544449
41.5051881485       -11.7770032159
42.0052506563       -12.7908052415
42.5053131641       -13.7841188394
43.005375672       -14.7392100244
43.5054381798       -15.6354244979
44.0055006876       -16.449988244
44.5055631954       -17.159273492
45.0056257032       -17.7404829334
45.505688211       -18.1735979423
46.0057507188       -18.4433333542
46.5058132267       -18.5407798733
47.0058757345       -18.4644289596
47.5059382423       -18.2203750916
48.0060007501       -17.8216540246
48.5060632579       -17.2868527087
49.0061257657       -16.6382604936
49.5061882735       -15.8998849979
50.0062507813       -15.0956257111
50.5063132892       -14.2478093844
51.006375797       -13.3761816761
51.5064383048       -12.4973526285
52.0065008126       -11.6246280043
52.5065633204       -10.7681276029
53.0066258282       -9.93508861242
53.506688336       -9.13026621852
54.0067508439       -8.35636527666
54.5068133517       -7.61445894925
55.0068758595       -6.90436904454
55.5069383673       -6.22499700659
56.0070008751       -5.57460420842
56.5070633829       -4.95104619176
57.0071258907       -4.35196874767
57.5071883985       -3.77497510817
58.0072509064       -3.21777366009
58.5073134142       -2.67831489165
59.007375922       -2.15492489782
59.5074384298       -1.64644066254
60.0075009376       -1.15234931334
60.5075634454       -0.672929338683
61.0076259532       -0.209386150298
61.5076884611       0.236032613628
62.0077509689       0.659964459548
62.5078134767       1.05793173807
63.0078759845       1.42444753195
63.5079384923       1.75325938525
64.0080010001       2.03775040904
64.5080635079       2.27149329086
65.0081260158       2.44891848906
65.5081885236       2.56602026322
66.0082510314       2.62099470266
66.5083135392       2.61469516313
67.008376047       2.55081034193
67.5084385548       2.4357166875
68.0085010626       2.27801764515
68.5085635704       2.08783965832
69.0086260783       1.87599353549
69.5086885861       1.65312262534
70.0087510939       1.4289480301
70.5088136017       1.2116930571
71.0088761095       1.00773257493
71.5089386173       0.821474990675
72.0090011251       0.655450924016
72.509063633       0.51055805491
73.0091261408       0.386399322263
73.5091886486       0.281652329573
74.0092511564       0.194419053293
74.5093136642       0.122522076838
75.009376172       0.063731449591
75.5094386798       0.0159209925635
76.0095011876       -0.0228374218213
76.5095636955       -0.0542283960686
77.0096262033       -0.0796823038206
77.5096887111       -0.100386886747
78.0097512189       -0.117311318034
78.5098137267       -0.131235688638
79.0098762345       -0.142781313593
79.5099387423       -0.152439152145
80.0100012502       -0.160594981124
80.510063758       -0.16755084073
81.0101262658       -0.173542798933
81.5101887736       -0.178755361637
82.0102512814       -0.18333297706
82.5103137892       -0.187389108002
83.010376297       -0.191013318147
83.5104388049       -0.194276766232
84.0105013127       -0.19723644151
84.5105638205       -0.199938414725
85.0106263283       -0.202420325541
85.5106888361       -0.204713281632
86.0107513439       -0.206843306763
86.5108138517       -0.208832444546
87.0108763595       -0.210699600102
87.5109388674       -0.212461182737
88.0110013752       -0.214131597763
88.511063883       -0.215723624125
89.0111263908       -0.217248705606
89.5111888986       -0.218717176675
90.0112514064       -0.220138438854
90.5113139142       -0.22152109962
91.0113764221       -0.222873082866
91.5114389299       -0.22420171776
92.0115014377       -0.225513811104
92.5115639455       -0.226815707065
93.0116264533       -0.228113337199
93.5116889611       -0.229412262923
94.0117514689       -0.230717712123
94.5118139767       -0.232034611119
95.0118764846       -0.233367612934
95.5119389924       -0.234721122598
96.0120015002       -0.236099320012
96.512064008       -0.237506180796
97.0121265158       -0.238945495459
97.5121890236       -0.240420887114
98.0122515314       -0.241935827965
98.5123140393       -0.243493654699
99.0123765471       -0.245097582927
99.5124390549       -0.246750720773
100.012501563       -0.248456081698
100.512564071       -0.250216596638
101.012626578       -0.252035125511
101.512689086       -0.253914468174
102.012751594       -0.25585737485
102.512814102       -0.257866556097
103.01287661       -0.259944692357
103.512939117       -0.262094443118
104.013001625       -0.264318455737
104.513064133       -0.266619373952
105.013126641       -0.268999846127
105.513189149       -0.271462533253
106.013251656       -0.274010116752
106.513314164       -0.276645306089
107.013376672       -0.27937084626
107.51343918       -0.282189525143
108.013501688       -0.285104180777
108.513564196       -0.288117708574
109.013626703       -0.291233068499
109.513689211       -0.294453292255
110.013751719       -0.297781490474
110.513814227       -0.301220859975
111.013876735       -0.304774691089
111.513939242       -0.308446375084
112.01400175       -0.312239411734
112.514064258       -0.316157417032
113.014126766       -0.320204131097
113.514189274       -0.324383426295
114.014251781       -0.3286993156
114.514314289       -0.33315596123
115.014376797       -0.337757683591
115.514439305       -0.342508970553
116.014501813       -0.3474144871
116.514564321       -0.35247908538
117.014626828       -0.357707815196
117.514689336       -0.363105934987
118.014751844       -0.368678923312
118.514814352       -0.374432490906
119.01487686       -0.380372593341
119.514939367       -0.386505444341
120.015001875       -0.392837529798
120.515064383       -0.39937562255
121.015126891       -0.406126797974
121.515189399       -0.413098450453
122.015251906       -0.420298310785
122.515314414       -0.427734464609
123.015376922       -0.435415371906
123.51543943       -0.443349887679
124.015501938       -0.45154728388
124.515564446       -0.460017272682
125.015626953       -0.468770031202
125.515689461       -0.477816227771
126.015751969       -0.487167049882
126.515814477       -0.49683423393
127.015876985       -0.506830096879
127.515939492       -0.517167570017
128.016002       -0.52786023494
128.516064508       -0.538922361946
129.016127016       -0.550368951028
129.516189524       -0.56221577566
130.016252032       -0.574479429603
130.516314539       -0.587177376964
131.016377047       -0.600328005773
131.516439555       -0.613950685352
132.016502063       -0.628065827792
132.516564571       -0.642694953865
133.016627078       -0.657860763741
133.516689586       -0.673587212909
134.016752094       -0.689899593725
134.516814602       -0.70682462308
135.01687711       -0.724390536691
135.516939617       -0.742627190596
136.017002125       -0.761566170461
136.517064633       -0.781240909399
137.017127141       -0.801686815032
137.517189649       -0.822941406625
138.017252157       -0.845044463191
138.517314664       -0.868038183565
139.017377172       -0.89196735952
139.51743968       -0.916879563146
140.017502188       -0.942825349791
140.517564696       -0.969858478041
141.017627203       -0.998036148332
141.517689711       -1.02741926197
142.017752219       -1.05807270252
142.517814727       -1.09006564174
143.017877235       -1.12347187242
143.517939742       -1.15837017086
144.01800225       -1.19484469176
144.518064758       -1.23298539905
145.018127266       -1.27288853592
145.518189774       -1.31465713839
146.018252282       -1.35840159668
146.518314789       -1.4042402693
147.018377297       -1.45230015549
147.518439805       -1.502717632
148.018502313       -1.55563926101
148.518564821       -1.61122267677
149.018627328       -1.66963755926
149.518689836       -1.73106670437
150.018752344       -1.79570720068
150.518814852       -1.86377172469
151.01887736       -1.93548996697
151.518939867       -2.01111020365
152.019002375       -2.09090102885
152.519064883       -2.17515326541
153.019127391       -2.26418207323
153.519189899       -2.3583292762
154.019252407       -2.457965931
154.519314914       -2.563495163
155.019377422       -2.67535529691
155.51943993       -2.79402331163
156.019502438       -2.9200186512
156.519564946       -3.05390742531
157.019627453       -3.19630703398
157.519689961       -3.34789125205
158.019752469       -3.50939580784
158.519814977       -3.68162448863
159.019877485       -3.86545580039
159.519939992       -4.06185020111
160.0200025       -4.27185791401
160.520065008       -4.49662730716
161.020127516       -4.73741379705
161.520190024       -4.99558919297
162.020252532       -5.27265134095
162.520315039       -5.57023384693
163.020377547       -5.8901155495
163.520440055       -6.2342292662
164.020502563       -6.60466913989
164.520565071       -7.00369565147
165.020627578       -7.43373702257
165.520690086       -7.89738528847
166.020752594       -8.39738475393
166.520815102       -8.93660983073
167.02087761       -9.51802837686
167.520940118       -10.1446456046
168.021002625       -10.8194224134
168.521065133       -11.5451606904
169.021127641       -12.3243468316
169.521190149       -13.1589437101
170.021252657       -14.0501209585
170.521315164       -14.9979143533
171.021377672       -16.0008082094
171.52144018       -17.0552411662
172.021502688       -18.1550469713
172.521565196       -19.2908590965
173.021627703       -20.4495318621
173.521690211       -21.6136601417
174.021752719       -22.7613107173
174.521815227       -23.8661028719
175.021877735       -24.8977814004
175.521940243       -25.8233969285
176.02200275       -26.6091340245
176.522065258       -27.2227058173
177.022127766       -27.6360828493
177.522190274       -27.8281838982
178.022252782       -27.7870806665
178.522315289       -27.5113010149
179.022377797       -27.0099672445
179.522440305       -26.3017400926
180.022502813       -25.4127826938
180.522565321       -24.3741345721
181.022627828       -23.2189467824
181.522690336       -21.9799755414
182.022752844       -20.6876017877
182.522815352       -19.3684914989
183.02287786       -18.0448808193
183.522940368       -16.734384456
184.023002875       -15.4501879613
184.523065383       -14.201483861
185.023127891       -12.9940331178
185.523190399       -11.830763695
186.023252907       -10.7123477902
186.523315414       -9.63772375052
187.023377922       -8.60454626325
187.52344043       -7.60955970918
188.023502938       -6.64889619193
188.523565446       -5.71830352111
189.023627953       -4.81331079924
189.523690461       -3.92934105481
190.023752969       -3.0617817526
190.523815477       -2.2060247863
191.023877985       -1.35748748794
191.523940493       -0.511625286455
192.024003       0.336054776567
192.524065508       1.18997195009
193.024128016       2.0544344943
193.524190524       2.93358114324
194.024253032       3.8312951532
194.524315539       4.7510842793
195.024378047       5.69591943961
195.524440555       6.66802463095
196.024503063       7.66861146786
196.524565571       8.69755431554
197.024628079       9.75300734818
197.524690586       10.8309740573
198.024753094       11.924853699
198.524815602       13.0250082212
199.02487811       14.1184162736
199.524940618       15.1885045106
200.025003125       16.2152638188
200.525065633       17.1757593344
201.025128141       18.0451166337
201.525190649       18.7980036787
202.025253157       19.4105298355
202.525315664       19.862366055
203.025378172       20.1387872113
203.52544068       20.2322897681
204.025503188       20.1434769109
204.525565696       19.8810320157
205.025628204       19.4607864735
205.525690711       18.9040711088
206.025753219       18.2356642337
206.525815727       17.4816825421
207.025878235       16.6677087049
207.525940743       15.8173443691
208.02600325       14.9512603899
208.526065758       14.0867197444
209.026128266       13.2374880992
209.526190774       12.4140225303
210.026253282       11.6238314389
210.526315789       10.8719167566
211.026378297       10.1612332499
211.526440805       9.49312261896
212.026503313       8.86769884614
212.526565821       8.28417493433
213.026628329       7.74113016635
213.526690836       7.2367222695
214.026753344       6.76885144637
214.526815852       6.33528405842
215.02687836       5.93374353269
215.526940868       5.56197530161
216.027003375       5.2177916021
216.527065883       4.89910094652
217.027128391       4.60392613672
217.527190899       4.33041387122
218.027253407       4.07683830832
218.527315914       3.84160038769
219.027378422       3.62322426787
219.52744093       3.42035188806
220.027503438       3.2317363932
220.527565946       3.05623495593
221.027628454       2.89280137371
221.527690961       2.74047870342
222.027753469       2.59839210973
222.527815977       2.46574204073
223.027878485       2.34179779843
223.527940993       2.22589153953
224.0280035       2.11741271856
224.528066008       2.01580297001
225.028128516       1.92055141565
225.528191024       1.83119037625
226.028253532       1.7472914636
226.52831604       1.66846202603
227.028378547       1.59434192078
227.528441055       1.52460058637
228.028503563       1.45893438937
228.528566071       1.39706422113
229.028628579       1.33873332166
229.528691086       1.28370530952
230.028753594       1.23176239818
230.528816102       1.18270378103
231.02887861       1.13634416868
231.528941118       1.09251246389
232.029003625       1.05105056067
232.529066133       1.01181225535
233.029128641       0.974662258944
233.529191149       0.939475300685
234.029253657       0.906135314072
234.529316165       0.874534697381
235.029378672       0.84457364149
235.52944118       0.816159518592
236.029503688       0.789206326017
236.529566196       0.763634179976
237.029628704       0.739368854562
237.529691211       0.716341361844
238.029753719       0.69448756929
238.529816227       0.673747851155
239.029878735       0.654066770827
239.529941243       0.63539279141
240.03000375       0.617678012124
240.530066258       0.600877928365
241.030128766       0.584951213459
241.530191274       0.569859520406
242.030253782       0.555567302043
242.53031629       0.542041648283
243.030378797       0.529252139191
243.530441305       0.517170712849
244.030503813       0.505771547069
244.530566321       0.495030954134
245.030628829       0.484927287898
245.530691336       0.475440862631
246.030753844       0.466553883158
246.530816352       0.458250385887
247.03087886       0.450516190457
247.530941368       0.443338861816
248.031003875       0.436707682611
248.531066383       0.430613635914
249.031128891       0.425049398331
249.531191399       0.420009343697
250.031253907       0.415489557604
250.531316415       0.411487863128
251.031378922       0.408003858187
251.53144143       0.405038965088
252.031503938       0.402596492858
252.531566446       0.40068171309
253.031628954       0.399301950048
253.531691461       0.398466685882
254.031753969       0.398187681791
254.531816477       0.398479115999
255.031878985       0.399357739317
255.531941493       0.400843048968
256.032004001       0.40295748107
256.532066508       0.405726621838
257.032129016       0.409179436931
257.532191524       0.413348517563
258.032254032       0.418270340756
258.53231654       0.423985539386
259.032379047       0.430539175359
259.532441555       0.437981005962
260.032504063       0.446365729122
260.532566571       0.455753187441
261.032629079       0.466208503148
261.532691586       0.477802106005
262.032754094       0.490609603056
262.532816602       0.504711422414
263.03287911       0.520192142259
263.532941618       0.537139390469
264.033004126       0.555642169594
264.533066633       0.575788426807
265.033129141       0.597661650835
