#  x                 y             frequency           rot. str.
0.0      0.604457010979      29.09      -0.44
0.500062507813      0.623345746031      35.42      16.99
1.00012501563      0.643048060999      70.54      -22.62
1.50018752344      0.663609060037      94.04      21.65
2.00025003125      0.685076900123      158.36      3.30
2.50031253907      0.707503034048      189.27      -38.93
3.00037504688      0.730942475507      228.27      9.87
3.50043755469      0.755454088552      300.99      1.79
4.00050006251      0.781100903878      321.63      -31.34
4.50056257032      0.807950464736      336.04      17.74
5.00062507813      0.836075205543      368.59      -11.73
5.50068758595      0.865552866636      422.23      7.78
6.00075009376      0.896466948991      427.07      -13.86
6.50081260158      0.928907213164      437.97      9.52
7.00087510939      0.962970227229      496.51      2.25
7.5009376172      0.998759969014      517.67      13.34
8.00100012502      1.03638848857      543.38      33.73
8.50106263283      1.07597663746      570.46      31.63
9.00112514064      1.11765487242      646.01      -172.36
9.50118764846      1.16156414139      659.91      2.13
10.0012501563      1.20785686155      725.40      -9.59
10.5013126641      1.25669799942      741.27      72.49
11.0013751719      1.30826626484      760.95      -2.57
11.5014376797      1.36275543175      799.39      -26.51
12.0015001875      1.42037580032      812.39      30.18
12.5015626953      1.48135581687      845.07      99.91
13.0016252032      1.54594386965      853.10      -24.13
13.501687711      1.61441028109      897.85      -48.12
14.0017502188      1.68704951926      921.29      -6.22
14.5018127266      1.76418265412      943.13      -9.15
15.0018752344      1.8461600868      968.52      -2.73
15.5019377422      1.93336458361      979.59      33.37
16.00200025      2.02621464945      1037.48      -0.16
16.5020627578      2.12516827857      1095.22      20.75
17.0021252657      2.23072712415      1136.29      -0.42
17.5021877735      2.34344113003      1145.93      91.50
18.0022502813      2.46391366979      1189.46      -25.07
18.5023127891      2.59280723701      1200.95      2.40
19.0023752969      2.73084972543      1209.74      -3.67
19.5024378047      2.87884132608      1231.54      -10.64
20.0025003125      3.03766204547      1240.42      -0.31
20.5025628204      3.2082798088      1285.41      19.39
21.0026253282      3.39175904534      1290.86      -50.44
21.502687836      3.58926954598      1342.99      -39.92
22.0027503438      3.80209521673      1350.37      30.98
22.5028128516      4.03164210222      1368.34      11.71
23.0028753594      4.27944468986      1380.39      -16.04
23.5029378672      4.54716899486      1419.22      52.68
24.003000375      4.83661024113      1473.63      7.66
24.5030628829      5.14968208034      1485.35      -7.21
25.0031253907      5.48839325764      1551.80      -1.99
25.5031878985      5.85480652593      1635.40      -0.98
26.0032504063      6.25097360522      1651.58      15.18
26.5033129141      6.67883934892      1658.85      3.72
27.0033754219      7.14010834891      1805.96      -137.17
27.5034379297      7.63606831868      2943.95      -4.45
28.0035004376      8.16736696837      3040.41      10.27
28.5035629454      8.73374278708      3096.20      -1.04
29.0036254532      9.33371511109      3149.93      -2.06
29.503687961      9.96424507158      3177.97      1.14
30.0037504688      10.6203867693      3194.89      -2.90
30.5038129766      11.2949579246      3196.90      0.60
31.0038754844      11.9782717838      3509.66      -7.37
31.5039379922      12.6579865607      3593.65      2.69
32.0040005001      13.3191421003      3722.77      -17.67
32.5040630079      13.9444595603      3799.73      -7.18
33.0041255157       14.5149700338
33.5041880235       15.0110038101
34.0042505313       15.4135101059
34.5043130391       15.7055947429
35.0043755469       15.8740805728
35.5044380548       15.9108420821
36.0045005626       15.8136694338
36.5045630704       15.5864895841
37.0046255782       15.2388980709
37.504688086       14.7850963411
38.0047505938       14.2424408245
38.5048131016       13.6298595665
39.0048756095       12.9663742414
39.5049381173       12.2698980102
40.0050006251       11.5563928929
40.5050631329       10.8393913924
41.0051256407       10.1298321612
41.5051881485       9.43613225392
42.0052506563       8.76441414683
42.5053131641       8.11881588636
43.005375672       7.50182949687
43.5054381798       6.91463036475
44.0055006876       6.35737549058
44.5055631954       5.829460017
45.0056257032       5.32972929819
45.505688211       4.85664858475
46.0057507188       4.40843494206
46.5058132267       3.98315703464
47.0058757345       3.5788084789
47.5059382423       3.19336001659
48.0060007501       2.82479507142
48.5060632579       2.47113249627
49.0061257657       2.13043959516
49.5061882735       1.80083786117
50.0062507813       1.48050332575
50.5063132892       1.1676629674
51.006375797       0.860588269734
51.5064383048       0.557586739085
52.0065008126       0.256991977264
52.5065633204       -0.0428472544851
53.0066258282       -0.343578659358
53.506688336       -0.646858472608
54.0067508439       -0.954363773173
54.5068133517       -1.2678048541
55.0068758595       -1.58893745219
55.5069383673       -1.9195745926
56.0070008751       -2.26159772578
56.5070633829       -2.61696671617
57.0071258907       -2.98772807619
57.5071883985       -3.37602061458
58.0072509064       -3.7840773711
58.5073134142       -4.21422232501
59.007375922       -4.66885987515
59.5074384298       -5.15045447956
60.0075009376       -5.6614971017
60.5075634454       -6.20445424083
61.0076259532       -6.78169435235
61.5076884611       -7.39538545928
62.0077509689       -8.04735685725
62.5078134767       -8.73891726651
63.0078759845       -9.47062197834
63.5079384923       -10.2419830644
64.0080010001       -11.0511203712
64.5080635079       -11.8943577978
65.0081260158       -12.7657802944
65.5081885236       -13.6567828791
66.0082510314       -14.5556636129
66.5083135392       -15.4473360137
67.008376047       -16.3132581796
67.5084385548       -17.1316879051
68.0085010626       -17.8783644869
68.5085635704       -18.5276778598
69.0086260783       -19.0543086359
69.5086885861       -19.4352151074
70.0087510939       -19.651728603
70.5088136017       -19.6914342375
71.0088761095       -19.5494992313
71.5089386173       -19.2291871231
72.0090011251       -18.7414516596
72.509063633       -18.1036935624
73.0091261408       -17.3379260955
73.5091886486       -16.4686828085
74.0092511564       -15.5209967108
74.5093136642       -14.5187024868
75.009376172       -13.4832002306
75.5094386798       -12.4327091589
76.0095011876       -11.3819582263
76.5095636955       -10.3422160323
77.0096262033       -9.32155045696
77.5096887111       -8.32521856758
78.0097512189       -7.35610845065
78.5098137267       -6.41517831828
79.0098762345       -5.50185946331
79.5099387423       -4.61440622221
80.0100012502       -3.75018775501
80.510063758       -2.90592386139
81.0101262658       -2.07787125971
81.5101887736       -1.26196878413
82.0102512814       -0.453950650462
82.5103137892       0.350563069146
83.010376297       1.15598990736
83.5104388049       1.96671383385
84.0105013127       2.78701104099
84.5105638205       3.62096421994
85.0106263283       4.4723566601
85.5106888361       5.3445372735
86.0107513439       6.24024762835
86.5108138517       7.16140266754
87.0108763595       8.10881856514
87.5109388674       9.08188492461
88.0110013752       10.0781852115
88.511063883       11.0930799472
89.0111263908       12.1192825007
89.5111888986       13.146477173
90.0112514064       14.1610518631
90.5113139142       15.1460384682
91.0113764221       16.0813656178
91.5114389299       16.9445199932
92.0115014377       17.71167396
92.5115639455       18.3592632824
93.0116264533       18.8658956778
93.5116889611       19.2143612685
94.0117514689       19.3934355553
94.5118139767       19.3991517834
95.0118764846       19.2352929727
95.5119389924       18.9130030199
96.0120015002       18.449597595
96.512064008       17.8668109908
97.0121265158       17.1887982765
97.5121890236       16.4402076741
98.0122515314       15.6445634404
98.5123140393       14.8230911721
99.0123765471       13.9940122469
99.5124390549       13.17225627
100.012501563       12.3694979558
100.512564071       11.5944135794
101.012626578       10.8530618664
101.512689086       10.1493143952
102.012751594       9.48528321662
102.512814102       8.86171361705
103.01287661       8.27832570966
103.512939117       7.73409953952
104.013001625       7.22750529909
104.513064133       6.75668405033
105.013126641       6.31958600538
105.513189149       5.91407372202
106.013251656       5.53799710736
106.513314164       5.18924628945
107.013376672       4.86578745948
107.51343918       4.56568585009
108.013501688       4.28711917019
108.513564196       4.02838409325
109.013626703       3.78789779774
109.513689211       3.56419607633
110.013751719       3.35592914942
110.513814227       3.16185602209
111.013876735       2.98083799577
111.513939242       2.81183177289
112.01400175       2.65388246266
112.514064258       2.50611669921
113.014126766       2.36773601185
113.514189274       2.23801053504
114.014251781       2.1162731083
114.514314289       2.00191378925
115.014376797       1.89437478485
115.514439305       1.79314579293
116.014501813       1.69775973805
116.514564321       1.60778888065
117.014626828       1.52284127531
117.514689336       1.44255755329
118.014751844       1.36660800361
118.514814352       1.2946899282
119.01487686       1.22652524734
119.514939367       1.16185833305
120.015001875       1.10045404964
120.515064383       1.04209598227
121.015126891       0.986584835798
121.515189399       0.933736987979
122.015251906       0.883383182217
122.515314414       0.835367346836
123.015376922       0.789545528825
123.51543943       0.745784931392
124.015501938       0.703963045673
124.515564446       0.663966867987
125.015626953       0.62569219495
125.515689461       0.589042989587
126.015751969       0.55393081237
126.515814477       0.520274311791
127.015876985       0.487998769743
127.515939492       0.457035697541
128.016002       0.427322478988
128.516064508       0.39880205736
129.016127016       0.371422663673
129.516189524       0.345137584002
130.016252032       0.319904964054
130.516314539       0.295687649571
131.016377047       0.272453061502
131.516439555       0.250173105267
132.016502063       0.22882411375
132.516564571       0.208386824028
133.016627078       0.18884638817
133.516689586       0.170192418782
134.016752094       0.152419070298
134.516814602       0.135525157381
135.01687711       0.119514312105
135.516939617       0.104395181927
136.017002125       0.0901816707885
136.517064633       0.0768932259594
137.017127141       0.0645551735087
137.517189649       0.0531991054902
138.017252157       0.0428633220308
138.517314664       0.0335933315003
139.017377172       0.0254424117232
139.51743968       0.0184722347161
140.017502188       0.0127535565671
140.517564696       0.00836697268445
141.017627203       0.00540373652328
141.517689711       0.00396663679221
142.017752219       0.00417092369445
142.517814727       0.00614526851587
143.017877235       0.0100327322305
143.517939742       0.0159917069794
144.01800225       0.0241967782943
144.518064758       0.0348394345307
145.018127266       0.0481285215755
145.518189774       0.0642903036277
146.018252282       0.0835679424867
146.518314789       0.106220145869
147.018377297       0.132518657308
147.518439805       0.16274416403
148.018502313       0.197180083819
148.518564821       0.236103558704
149.018627328       0.27977283819
149.518689836       0.328410091084
150.018752344       0.382178568254
150.518814852       0.441152991887
151.01887736       0.505282137384
151.518939867       0.57434289929
152.019002375       0.647885821537
152.519064883       0.725173275816
153.019127391       0.805113333609
153.519189899       0.886194970669
154.019252407       0.966433467235
154.519314914       1.04333830969
155.019377422       1.11391869833
155.51943993       1.17474257028
156.019502438       1.2220622059
156.519564946       1.25201160134
157.019627453       1.26086761187
157.519689961       1.24535024974
158.019752469       1.20292176641
158.519814977       1.13203511521
159.019877485       1.03228515271
159.519939992       0.904431962763
160.0200025       0.750291243047
160.520065008       0.572513876667
161.020127516       0.374296975772
161.520190024       0.159076322927
162.020252532       -0.0697550953662
162.520315039       -0.309071794637
163.020377547       -0.556169991603
163.520440055       -0.808852316652
164.020502563       -1.0654539202
164.520565071       -1.32482539335
165.020627578       -1.58628824315
165.520690086       -1.84957640729
166.020752594       -2.11477395923
166.520815102       -2.38225578608
167.02087761       -2.65263517788
167.520940118       -2.9267201461
168.021002625       -3.20547886468
168.521065133       -3.49001377166
169.021127641       -3.78154342992
169.521190149       -4.08139108196
170.021252657       -4.39097883668
170.521315164       -4.71182651664
171.021377672       -5.0455543208
171.52144018       -5.393888586
172.021502688       -5.7586700418
172.521565196       -6.14186403643
173.021627703       -6.54557225809
173.521690211       -6.97204548234
174.021752719       -7.42369683511
174.521815227       -7.90311496681
175.021877735       -8.41307637452
175.521940243       -8.95655587446
176.02200275       -9.53673389828
176.522065258       -10.1569988426
177.022127766       -10.820942117
177.522190274       -11.5323427812
178.022252782       -12.2951377135
178.522315289       -13.1133720784
179.022377797       -13.991123467
179.522440305       -14.932391478
180.022502813       -15.9409427883
180.522565321       -17.0201001006
181.022627828       -18.1724620889
181.522690336       -19.3995411454
182.022752844       -20.7013072268
182.522815352       -22.0756306108
183.02287786       -23.5176255066
183.522940368       -25.0189120016
184.023002875       -26.5668373887
184.523065383       -28.1437300892
185.023127891       -29.7262984228
185.523190399       -31.2853266196
186.023252907       -32.7858504491
186.523315414       -34.187997774
187.023377922       -35.4486356705
187.52344043       -36.5238606277
188.023502938       -37.3722027057
188.523565446       -37.9582157018
189.023627953       -38.2559489699
189.523690461       -38.251712388
190.023752969       -37.9456083655
190.523815477       -37.3515201723
191.023877985       -36.4955590105
191.523940493       -35.4132846089
192.024003       -34.1462275261
192.524065508       -32.738301403
193.024128016       -31.2326074378
193.524190524       -29.6689561213
194.024253032       -28.0822325866
194.524315539       -26.5015670579
195.024378047       -24.950167698
195.524440555       -23.445630301
196.024503063       -22.0005427476
196.524565571       -20.6232323777
197.024628079       -19.3185446307
197.524690586       -18.088580267
198.024753094       -16.9333505362
198.524815602       -15.8513330924
199.02487811       -14.8399268909
199.524940618       -13.8958133499
200.025003125       -13.0152355217
200.525065633       -12.1942084754
201.025128141       -11.4286737564
201.525190649       -10.7146095119
202.025253157       -10.0481062051
202.525315664       -9.42541611891
203.025378172       -8.84298324847
203.52544068       -8.29745877991
204.025503188       -7.78570618253
204.525565696       -7.30479898401
205.025628204       -6.85201353798
205.525690711       -6.42481849673
206.025753219       -6.02086224138
206.525815727       -5.63795916985
207.025878235       -5.27407547747
207.525940743       -4.92731486643
208.02600325       -4.59590447324
208.526065758       -4.27818119604
209.026128266       -3.97257852669
209.526190774       -3.67761393838
210.026253282       -3.3918768435
210.526315789       -3.11401711408
211.026378297       -2.84273414614
211.526440805       -2.57676644804
212.026503313       -2.31488174037
212.526565821       -2.05586757159
213.026628329       -1.7985224802
213.526690836       -1.54164777201
214.026753344       -1.28404003376
214.526815852       -1.02448457392
215.02687836       -0.761750074038
215.526940868       -0.494584853869
216.027003375       -0.221715308789
216.527065883       0.0581527257775
217.027128391       0.346328681775
217.527190899       0.644126735566
218.027253407       0.952848393944
218.527315914       1.27375611914
219.027378422       1.60803548381
219.52744093       1.95674292437
220.027503438       2.32073583947
220.527565946       2.70058170218
221.027628454       3.09644323667
221.527690961       3.5079378638
222.027753469       3.93397194683
222.527815977       4.37255432587
223.027878485       4.82059962333
223.527940993       5.27373997891
224.0280035       5.72617378059
224.528066008       6.17059012636
225.028128516       6.59821530757
225.528191024       6.99902825669
226.028253532       7.36218069323
226.52831604       7.67663088808
227.028378547       7.93195784449
227.528441055       8.11927226196
228.028503563       8.23209606566
228.528566071       8.26706125928
229.028628579       8.22429507377
229.528691086       8.10741332572
230.028753594       7.923123419
230.528816102       7.68051748107
231.02887861       7.39018989301
231.528941118       7.0633283042
232.029003625       6.71090511993
232.529066133       6.34305137816
233.029128641       5.96864458561
233.529191149       5.59510041229
234.029253657       5.22833188962
234.529316165       4.87282902928
235.029378672       4.53181274977
235.52944118       4.20742470742
236.029503688       3.9009248268
236.529566196       3.61287819258
237.029628704       3.34332107023
237.529691211       3.09190174323
238.029753719       2.85799574971
238.529816227       2.64079738206
239.029878735       2.43939043499
239.529941243       2.25280155149
240.03000375       2.08003942714
240.530066258       1.92012280877
241.030128766       1.77209980028
241.530191274       1.63506055232
242.030253782       1.50814500663
242.53031629       1.39054701186
243.030378797       1.28151583082
243.530441305       1.18035581779
244.030503813       1.08642485173
244.530566321       0.99913196111
245.030628829       0.917934459333
245.530691336       0.842334821131
246.030753844       0.771877463348
246.530816352       0.706145543241
247.03087886       0.644757850431
247.530941368       0.587365841384
248.031003875       0.533650845628
248.531066383       0.483321458813
249.031128891       0.436111127864
249.531191399       0.39177592665
250.031253907       0.350092516115
250.531316415       0.310856279909
251.031378922       0.273879624908
251.53144143       0.23899043517
252.031503938       0.206030667592
252.531566446       0.174855077731
253.031628954       0.14533006462
253.531691461       0.117332624025
254.031753969       0.0907494002182
254.531816477       0.0654758271123
255.031878985       0.0414153502687
255.531941493       0.0184787220568
256.032004001       -0.00341663710934
256.532066508       -0.0243472178648
257.032129016       -0.0443839471313
257.532191524       -0.0635926647484
258.032254032       -0.0820345562368
258.53231654       -0.0997665459628
259.032379047       -0.116841654546
259.532441555       -0.133309323967
260.032504063       -0.149215713474
260.532566571       -0.164603969084
261.032629079       -0.179514469177
261.532691586       -0.193985048428
262.032754094       -0.208051202091
262.532816602       -0.221746272447
263.03287911       -0.235101619014
263.532941618       -0.248146773994
264.033004126       -0.260909584224
264.533066633       -0.2734163408
265.033129141       -0.285691897406
265.533191649       -0.297759778247
266.033254157       -0.309642276418
266.533316665       -0.3213605434
267.033379172       -0.332934670329
