#  x                 y             frequency           rot. str.
0.0      0.742393072868      25.91      11.12
0.500062507813      0.767579313347      31.15      -6.23
1.00012501563      0.794131058249      67.11      7.66
1.50018752344      0.822146370927      83.19      3.56
2.00025003125      0.851731824141      153.61      1.20
2.50031253907      0.883003337602      228.68      12.98
3.00037504688      0.916087103166      243.41      -9.75
3.50043755469      0.951120606374      262.37      3.36
4.00050006251      0.988253753605      307.71      14.40
4.50056257032      1.0276501145      335.95      -22.43
5.00062507813      1.06948828954      337.43      6.16
5.50068758595      1.11396341265      367.95      2.17
6.00075009376      1.16128879808      422.27      4.56
6.50081260158      1.21169774003      431.73      2.93
7.00087510939      1.26544547097      501.00      -0.72
7.5009376172      1.32281128201      538.52      4.39
8.00100012502      1.38410080317      562.19      -58.35
8.50106263283      1.44964843466      581.96      -56.24
9.00112514064      1.51981990938      604.21      122.84
9.50118764846      1.5950149525      660.30      0.38
10.0012501563      1.67566998331      732.59      -0.66
10.5013126641      1.76226077649      767.81      -41.98
11.0013751719      1.85530496178      784.30      -0.06
11.5014376797      1.95536418939      793.40      -0.59
12.0015001875      2.06304572005      817.59      -11.16
12.5015626953      2.1790031074      845.29      -83.94
13.0016252032      2.30393552158      861.31      18.92
13.501687711      2.43858510852      888.40      99.68
14.0017502188      2.58373158212      938.37      9.33
14.5018127266      2.74018299869      954.93      -3.60
15.0018752344      2.90876135685      967.99      -8.25
15.5019377422      3.09028129998      1011.68      56.83
16.00200025      3.28551977492      1036.62      -0.19
16.5020627578      3.49517404104      1081.29      27.31
17.0021252657      3.71980496876      1118.05      -10.53
17.5021877735      3.95976220034      1150.81      87.09
18.0022502813      4.21508760511      1189.52      139.40
18.5023127891      4.48539376742      1199.55      -5.37
19.0023752969      4.76971531391      1224.44      -64.13
19.5024378047      5.0663331456      1234.29      -39.99
20.0025003125      5.3725755955      1247.43      -10.53
20.5025628204      5.68460668437      1288.45      -10.90
21.0026253282      5.99722029237      1316.95      -8.11
21.502687836      6.3036699618      1349.96      1.91
22.0027503438      6.595575957      1361.77      1.56
22.5028128516      6.86296141615      1367.31      -4.70
23.0028753594      7.094473529      1384.46      14.78
23.5029378672      7.27783806091      1409.90      -15.38
24.003000375      7.40057108651      1474.46      8.01
24.5030628829      7.45092873664      1491.93      -3.17
25.0031253907      7.41901899282      1552.65      -12.78
25.5031878985      7.29794227692      1635.29      -2.55
26.0032504063      7.08478893992      1651.94      -19.36
26.5033129141      6.7813197288      1660.12      8.26
27.0033754219      6.39419731975      1808.82      -33.24
27.5034379297      5.93471390002      2997.13      20.73
28.0035004376      5.4180482507      3022.23      -7.38
28.5035629454      4.86215907059      3101.38      -1.46
29.0036254532      4.28646192693      3152.05      -2.12
29.503687961      3.71044371894      3159.39      3.51
30.0037504688      3.15235218828      3185.90      -2.01
30.5038129766      2.6280731129      3195.92      1.64
31.0038754844      2.15028254646      3484.23      -2.33
31.5039379922      1.72793509613      3562.43      -1.22
32.0040005001      1.36611656767      3724.77      -4.28
32.5040630079      1.06624804134      3799.49      -6.36
33.0041255157       0.826583750953
33.5041880235       0.642908206295
34.0042505313       0.509319869187
34.5043130391       0.41899405124
35.0043755469       0.364842736134
35.5044380548       0.340024055909
36.0045005626       0.338288550963
36.5045630704       0.35417561491
37.0046255782       0.383088778874
37.504688086       0.421283660222
38.0047505938       0.465800438862
38.5048131016       0.514366923636
39.0048756095       0.565291272034
39.5049381173       0.617356892232
40.0050006251       0.669726778369
40.5050631329       0.721860696323
41.0051256407       0.77344610352
41.5051881485       0.824342174204
42.0052506563       0.874535518519
42.5053131641       0.924105879318
43.005375672       0.973200074774
43.5054381798       1.02201259495
44.0055006876       1.07077147037
44.5055631954       1.11972825852
45.0056257032       1.16915121106
45.505688211       1.21932087726
46.0057507188       1.27052756216
46.5058132267       1.32307019186
47.0058757345       1.37725624587
47.5059382423       1.43340250084
48.0060007501       1.49183639526
48.5060632579       1.55289787387
49.0061257657       1.61694160702
49.5061882735       1.68433950568
50.0062507813       1.75548346878
50.5063132892       1.83078830783
51.006375797       1.91069479387
51.5064383048       1.99567276381
52.0065008126       2.08622420687
52.5065633204       2.1828862247
53.0066258282       2.28623371996
53.506688336       2.39688161343
54.0067508439       2.51548631673
54.5068133517       2.64274609072
55.0068758595       2.77939979426
55.5069383673       2.92622336777
56.0070008751       3.08402319613
56.5070633829       3.2536252512
57.0071258907       3.43585862638
57.5071883985       3.63153175087
58.0072509064       3.84139923122
58.5073134142       4.06611695471
59.007375922       4.30618288083
59.5074384298       4.56186096712
60.0075009376       4.83308611395
60.5075634454       5.11934912933
61.0076259532       5.41956283971
61.5076884611       5.73191395986
62.0077509689       6.05371046417
62.5078134767       6.38124098643
63.0078759845       6.70967067941
63.5079384923       7.03300556536
64.0080010001       7.34416214941
64.5080635079       7.63517738069
65.0081260158       7.89758216037
65.5081885236       8.12293724599
66.0082510314       8.30349510237
66.5083135392       8.43291206843
67.008376047       8.50690433972
67.5084385548       8.52373226107
68.0085010626       8.48441880894
68.5085635704       8.39265769751
69.0086260783       8.25443026919
69.5086885861       8.07740786891
70.0087510939       7.8702501962
70.5088136017       7.64191292451
71.0088761095       7.40105433721
71.5089386173       7.15559318813
72.0090011251       6.91243184523
72.509063633       6.67732939539
73.0091261408       6.45489241905
73.5091886486       6.24864558125
74.0092511564       6.06114662566
74.5093136642       5.89411702146
75.009376172       5.74856741795
75.5094386798       5.62490439729
76.0095011876       5.52301100545
76.5095636955       5.4422981325
77.0096262033       5.38172735357
77.5096887111       5.33980883697
78.0097512189       5.31458086387
78.5098137267       5.3035807085
79.0098762345       5.30382011752
79.5099387423       5.31178196332
80.0100012502       5.32345682071
80.510063758       5.33443768377
81.0101262658       5.34008605018
81.5101887736       5.33577193624
82.0102512814       5.31717441128
82.5103137892       5.28061081293
83.010376297       5.22334728862
83.5104388049       5.14383707517
84.0105013127       5.04184050589
84.5105638205       4.91840196982
85.0106263283       4.77568819217
85.5106888361       4.61671999179
86.0107513439       4.44504745508
86.5108138517       4.26442199867
87.0108763595       4.07850945057
87.5109388674       3.8906714378
88.0110013752       3.70382436459
88.511063883       3.52037084138
89.0111263908       3.34218968286
89.5111888986       3.1706673355
90.0112514064       3.00675434089
90.5113139142       2.85103340638
91.0113764221       2.70378936217
91.5114389299       2.56507478331
92.0115014377       2.43476788434
92.5115639455       2.31262133379
93.0116264533       2.19830196043
93.5116889611       2.09142208557
94.0117514689       1.99156358039
94.5118139767       1.89829585327
95.0118764846       1.81118892659
95.5119389924       1.72982263923
96.0120015002       1.65379285704
96.512064008       1.5827154172
97.0121265158       1.51622838871
97.5121890236       1.45399310608
98.0122515314       1.39569432951
98.5123140393       1.34103980004
99.0123765471       1.2897593912
99.5124390549       1.24160400619
100.012501563       1.19634432945
100.512564071       1.15376951027
101.012626578       1.11368583352
101.512689086       1.0759154149
102.012751594       1.04029494538
102.512814102       1.00667450049
103.01287661       0.974916423112
103.512939117       0.944894283695
104.013001625       0.916491918775
104.513064133       0.889602546033
105.013126641       0.864127952967
105.513189149       0.839977755189
106.013251656       0.817068719914
106.513314164       0.795324149962
107.013376672       0.774673323611
107.51343918       0.755050985701
108.013501688       0.736396885639
108.513564196       0.718655358166
109.013626703       0.701774943049
109.513689211       0.685708040127
110.013751719       0.670410596468
110.513814227       0.655841822626
111.013876735       0.641963935294
111.513939242       0.628741923881
112.01400175       0.61614333879
112.514064258       0.604138099374
113.014126766       0.592698319766
113.514189274       0.581798150945
114.014251781       0.571413637577
114.514314289       0.561522588328
115.014376797       0.552104458457
115.514439305       0.543140243656
116.014501813       0.534612384201
116.514564321       0.526504678571
117.014626828       0.518802205818
117.514689336       0.511491256018
118.014751844       0.504559268244
118.514814352       0.497994775567
119.01487686       0.49178735663
119.514939367       0.485927593458
120.015001875       0.480407035166
120.515064383       0.475218167323
121.015126891       0.470354386766
121.515189399       0.465809981713
122.015251906       0.461580117061
122.515314414       0.457660824829
123.015376922       0.454048999726
123.51543943       0.450742399884
124.015501938       0.447739652855
124.515564446       0.445040266999
125.015626953       0.442644648455
125.515689461       0.440554123956
126.015751969       0.438770969762
126.515814477       0.437298447102
127.015876985       0.436140844535
127.515939492       0.435303527731
128.016002       0.434792997242
128.516064508       0.43461695491
129.016127016       0.434784379639
129.516189524       0.435305613355
130.016252032       0.436192458048
130.516314539       0.437458284915
131.016377047       0.439118156685
131.516439555       0.441188964312
132.016502063       0.443689579311
132.516564571       0.446641023073
133.016627078       0.450066654528
133.516689586       0.453992377566
134.016752094       0.458446869537
134.516814602       0.463461832056
135.01687711       0.469072265075
135.516939617       0.47531676478
136.017002125       0.482237845251
136.517064633       0.489882282877
137.017127141       0.498301481169
137.517189649       0.507551851689
138.017252157       0.517695204161
138.517314664       0.528799135139
139.017377172       0.540937399614
139.51743968       0.554190243244
140.017502188       0.568644663883
140.517564696       0.584394559302
141.017627203       0.601540702517
141.517689711       0.620190466257
142.017752219       0.640457192775
142.517814727       0.662459073696
143.017877235       0.68631736613
143.517939742       0.712153726016
144.01800225       0.74008638866
144.518064758       0.770224873155
145.018127266       0.802662838518
145.518189774       0.837468687243
146.018252282       0.874673516208
146.518314789       0.914256085267
147.018377297       0.956124651657
147.518439805       1.00009585519
148.018502313       1.0458713907
148.518564821       1.09301401347
149.018627328       1.14092549144
149.518689836       1.1888303581
150.018752344       1.23577050576
150.518814852       1.28061638641
151.01887736       1.32210029435
151.518939867       1.35887530327
152.019002375       1.38959957358
152.519064883       1.41304018825
153.019127391       1.42818454372
153.519189899       1.43434253964
154.019252407       1.43122149559
154.519314914       1.41895918055
155.019377422       1.39810818354
155.51943993       1.36957485366
156.019502438       1.3345250004
156.519564946       1.29427374431
157.019627453       1.25017725004
157.519689961       1.20354032457
158.019752469       1.15554797064
158.519814977       1.10722304033
159.019877485       1.05940758773
159.519939992       1.01276292404
160.0200025       0.967782564036
160.520065008       0.924812679946
161.020127516       0.884075754733
161.520190024       0.845694382082
162.020252532       0.80971330725
162.520315039       0.77611870954
163.020377547       0.744854368723
163.520440055       0.715834766297
164.020502563       0.688955401611
164.520565071       0.664100706913
165.020627578       0.64114996964
165.520690086       0.619981648536
166.020752594       0.600476425712
166.520815102       0.582519284
167.02087761       0.566000846652
167.520940118       0.550818168816
168.021002625       0.536875129257
168.521065133       0.524082536816
169.021127641       0.512358038587
169.521190149       0.501625895069
170.021252657       0.491816670575
170.521315164       0.482866874109
171.021377672       0.474718576047
171.52144018       0.46731901843
172.021502688       0.460620231152
172.521565196       0.454578662181
173.021627703       0.449154826991
173.521690211       0.444312980157
174.021752719       0.4400208106
174.521815227       0.436249160823
175.021877735       0.432971769811
175.521940243       0.430165038747
176.02200275       0.427807818417
176.522065258       0.425881217021
177.022127766       0.424368427001
177.522190274       0.423254569531
178.022252782       0.422526555309
178.522315289       0.422172960377
179.022377797       0.42218391577
179.522440305       0.422551009871
180.022502813       0.423267202475
180.522565321       0.424326749616
181.022627828       0.425725138344
181.522690336       0.427459030711
182.022752844       0.429526216306
182.522815352       0.431925572777
183.02287786       0.434657033837
183.522940368       0.437721564343
184.023002875       0.441121142083
184.523065383       0.444858745994
185.023127891       0.448938350569
185.523190399       0.453364926305
186.023252907       0.458144446054
186.523315414       0.463283897245
187.023377922       0.468791299948
187.52344043       0.474675730844
188.023502938       0.480947353199
188.523565446       0.487617452982
189.023627953       0.494698481357
189.523690461       0.502204103789
190.023752969       0.51014925611
190.523815477       0.518550207904
191.023877985       0.527424633682
191.523940493       0.536791692351
192.024003       0.546672115575
192.524065508       0.557088305714
193.024128016       0.568064444083
193.524190524       0.579626610418
194.024253032       0.591802914497
194.524315539       0.604623641014
195.024378047       0.618121408921
195.524440555       0.632331346582
196.024503063       0.647291284283
196.524565571       0.663041965764
197.024628079       0.67962728069
197.524690586       0.697094520147
198.024753094       0.715494657534
198.524815602       0.734882657452
199.02487811       0.755317815532
199.524940618       0.776864132441
200.025003125       0.799590725702
200.525065633       0.823572283355
201.025128141       0.848889563964
201.525190649       0.875629947957
202.025253157       0.903888045849
202.525315664       0.933766369517
203.025378172       0.965376073347
203.52544068       0.998837772799
204.025503188       1.03428244873
204.525565696       1.07185244661
205.025628204       1.11170258074
205.525690711       1.15400135431
206.025753219       1.1989323072
206.525815727       1.24669550441
207.025878235       1.29750917838
207.525940743       1.35161153973
208.02600325       1.40926277092
208.526065758       1.4707472175
209.026128266       1.53637579112
209.526190774       1.606488597
210.026253282       1.68145779612
210.526315789       1.76169070771
211.026378297       1.8476331516
211.526440805       1.93977301954
212.026503313       2.03864405088
212.526565821       2.14482976757
213.026628329       2.25896749575
213.526690836       2.38175236246
214.026753344       2.51394110385
214.526815852       2.65635545076
215.02687836       2.80988476349
215.526940868       2.9754874635
216.027003375       3.15419064757
216.527065883       3.34708706052
217.027128391       3.55532833611
217.527190899       3.7801130826
218.027253407       4.02266798252
218.527315914       4.28421959427
219.027378422       4.56595399723
219.52744093       4.86896084496
220.027503438       5.19415785062
220.527565946       5.54219134893
221.027628454       5.91330856172
221.527690961       6.30719784667
222.027753469       6.72279496315
222.527815977       7.15805679065
223.027878485       7.60970958955
223.527940993       8.07298729597
224.0280035       8.54138658186
224.528066008       9.00647869708
225.028128516       9.45783120329
225.528191024       9.88310147999
226.028253532       10.2683624137
226.52831604       10.5987025177
227.028378547       10.859103606
227.528441055       11.0355408339
228.028503563       11.1161833912
228.528566071       11.0925194033
229.028628579       10.9602088197
229.528691086       10.71949908
230.028753594       10.375118441
230.528816102       9.93566906405
231.02887861       9.41264222673
231.528941118       8.81924042504
232.029003625       8.16920135084
232.529066133       7.47578284565
233.029128641       6.75100606542
233.529191149       6.00518922094
234.029253657       5.24675316915
234.529316165       4.48224990126
235.029378672       3.71655444972
235.52944118       2.95316424507
236.029503688       2.1945608191
236.529566196       1.44260140598
237.029628704       0.698918709425
237.529691211       -0.0346861627949
238.029753719       -0.755870654443
238.529816227       -1.46141346233
239.029878735       -2.14693556796
239.529941243       -2.80671111679
240.03000375       -3.43360786466
240.530066258       -4.01920011491
241.030128766       -4.55409016136
241.530191274       -5.02845278424
242.030253782       -5.43278011004
242.53031629       -5.75875599248
243.030378797       -6.00014217698
243.530441305       -6.15353000917
244.030503813       -6.21881683029
244.530566321       -6.19931090802
245.030628829       -6.10144297175
245.530691336       -5.93414348245
246.030753844       -5.70800686598
246.530816352       -5.43438975849
247.03087886       -5.12457761899
247.530941368       -4.78911411593
248.031003875       -4.43733781381
248.531066383       -4.07712621498
249.031128891       -3.7148168671
249.531191399       -3.35526073176
250.031253907       -3.00196131873
250.531316415       -2.65725940695
251.031378922       -2.32253299368
251.53144143       -1.99839224532
252.031503938       -1.68485790488
252.531566446       -1.38151819334
253.031628954       -1.08766375555
253.531691461       -0.802402994201
254.031753969       -0.524761634978
254.531816477       -0.253770943705
255.031878985       0.0114510669708
255.531941493       0.271621711089
256.032004001       0.527216359
256.532066508       0.77839086241
257.032129016       1.02490502708
257.532191524       1.26605149616
258.032254032       1.50059800318
258.53231654       1.72675471179
259.032379047       1.9421814057
259.532441555       2.14405025403
260.032504063       2.32917708247
260.532566571       2.4942261138
261.032629079       2.63597976695
261.532691586       2.75164822529
262.032754094       2.83917750811
262.532816602       2.8975056705
263.03287911       2.92671967312
263.532941618       2.92808187194
264.033004126       2.9039211473
264.533066633       2.85741135953
265.033129141       2.79228029096
265.533191649       2.7124999339
266.033254157       2.62200359177
266.533316665       2.52446094624
267.033379172       2.42312501616
267.53344168       2.32074992493
268.033504188       2.21956838914
268.533566696       2.12131325072
269.033629204       2.02726707221
