#  x                 y             frequency           rot. str.
0.0      0.0431372090024      36.93      0.20
0.500062507813      0.0427763532844      53.97      -0.52
1.00012501563      0.0424016726678      66.12      -6.12
1.50018752344      0.0420127958554      86.98      6.39
2.00025003125      0.0416093461983      159.63      2.46
2.50031253907      0.0411909422706      214.45      9.94
3.00037504688      0.0407571985522      242.36      29.07
3.50043755469      0.0403077262333      305.25      37.78
4.00050006251      0.0398421341579      320.06      -11.98
4.50056257032      0.0393600299229      338.16      2.16
5.00062507813      0.0388610211542      367.77      7.86
5.50068758595      0.0383447169829      420.83      22.46
6.00075009376      0.0378107297463      424.58      2.16
6.50081260158      0.0372586769438      435.74      -17.06
7.00087510939      0.0366881834797      485.02      -0.53
7.5009376172      0.0360988842303      528.34      -42.26
8.00100012502      0.0354904269749      563.81      30.03
8.50106263283      0.0348624757395      570.36      63.93
9.00112514064      0.0342147146017      648.32      -8.42
9.50118764846      0.0335468520179      659.98      1.85
10.0012501563      0.0328586257363      724.01      -22.53
10.5013126641      0.0321498083678      747.47      -44.95
11.0013751719      0.0314202136971      768.42      29.66
11.5014376797      0.0306697038227      813.06      23.25
12.0015001875      0.0298981972275      822.86      -75.01
12.5015626953      0.0291056778877      843.00      62.57
13.0016252032      0.0282922055446      856.14      -25.93
13.501687711      0.0274579272705      873.32      -29.05
14.0017502188      0.0266030904747      920.35      -7.04
14.5018127266      0.0257280575049      932.57      -15.67
15.0018752344      0.0248333220119      975.30      2.83
15.5019377422      0.0239195272521      988.66      102.94
16.00200025      0.0229874865084      1036.14      -0.72
16.5020627578      0.0220382058108      1091.63      55.61
17.0021252657      0.0210729091304      1128.30      -32.23
17.5021877735      0.020093066202      1148.81      -38.14
18.0022502813      0.0191004230963      1187.82      -98.62
18.5023127891      0.0180970356081      1199.79      -1.08
19.0023752969      0.0170853054372      1212.08      40.01
19.5024378047      0.0160680190123      1220.96      80.28
20.0025003125      0.0150483886201      1235.31      8.93
20.5025628204      0.0140300952362      1270.14      8.65
21.0026253282      0.013017332089      1288.66      -5.72
21.502687836      0.0120148474749      1351.03      12.67
22.0027503438      0.0110279846523      1353.73      -25.75
22.5028128516      0.010062715708      1367.52      16.39
23.0028753594      0.0091256650338      1375.25      -6.27
23.5029378672      0.00822411639548      1428.63      32.28
24.003000375      0.00736599539705      1474.84      1.44
24.5030628829      0.00655981631496      1487.54      -0.84
25.0031253907      0.00581457865215      1552.01      0.86
25.5031878985      0.00513959418549      1633.67      -11.44
26.0032504063      0.00454421961799      1656.73      -53.86
26.5033129141      0.00403746312025      1659.09      24.12
27.0033754219      0.0036274251064      1801.36      -153.38
27.5034379297      0.00332052483637      3037.05      13.98
28.0035004376      0.00312045558786      3056.17      0.90
28.5035629454      0.00302680359046      3086.64      -1.40
29.0036254532      0.00303326206363      3150.87      -4.64
29.503687961      0.00312537535109      3171.60      1.02
30.0037504688      0.00327776487174      3172.84      -6.01
30.5038129766      0.0034508259124      3195.84      2.31
31.0038754844      0.00358695118393      3492.89      0.68
31.5039379922      0.0036064425274      3573.52      -6.43
32.0040005001      0.00340342173727      3724.22      -18.25
32.5040630079      0.00284224142969      3799.56      -8.04
33.0041255157       0.00175510605029
33.5041880235       -5.82056637409e-05
34.0042505313       -0.00282754931092
34.5043130391       -0.0068057146477
35.0043755469       -0.0122573987693
35.5044380548       -0.0194441826439
36.0045005626       -0.028606827197
36.5045630704       -0.0399471925453
37.0046255782       -0.0536127257966
37.504688086       -0.0696864309457
38.0047505938       -0.0881843922203
38.5048131016       -0.109061441756
39.0048756095       -0.132223891305
39.5049381173       -0.157546919699
40.0050006251       -0.184893602174
40.5050631329       -0.214132759586
41.0051256407       -0.24515358407
41.5051881485       -0.27787601119
42.0052506563       -0.312256732943
42.5053131641       -0.348291388155
43.005375672       -0.386013779775
43.5054381798       -0.425493007623
44.0055006876       -0.46682926793
44.5055631954       -0.510148852512
45.0056257032       -0.555598650617
45.505688211       -0.60334025751
46.0057507188       -0.653543646687
46.5058132267       -0.70638027683
47.0058757345       -0.762015487312
47.5059382423       -0.820600096777
48.0060007501       -0.882261272563
48.5060632579       -0.947093000673
49.0061257657       -1.0151468669
49.5061882735       -1.08642434832
50.0062507813       -1.16087235732
50.5063132892       -1.23838425806
51.006375797       -1.31880879218
51.5064383048       -1.40196904924
52.0065008126       -1.4876925555
52.5065633204       -1.57585163005
53.0066258282       -1.66641056698
53.506688336       -1.75947352978
54.0067508439       -1.85532517527
54.5068133517       -1.9544558255
55.0068758595       -2.05756488114
55.5069383673       -2.16553973064
56.0070008751       -2.27941153408
56.5070633829       -2.40029255977
57.0071258907       -2.52930120717
57.5071883985       -2.66748023545
58.0072509064       -2.81571159579
58.5073134142       -2.97462863794
59.007375922       -3.14452433668
59.5074384298       -3.32525330004
60.0075009376       -3.5161260875
60.5075634454       -3.71579693695
61.0076259532       -3.92215034881
61.5076884611       -4.1321978742
62.0077509689       -4.34200329978
62.5078134767       -4.54666098917
63.0078759845       -4.74035636429
63.5079384923       -4.91653654733
64.0080010001       -5.06821003345
64.5080635079       -5.18837509687
65.0081260158       -5.27054860411
65.5081885236       -5.30933558788
66.0082510314       -5.30095501716
66.5083135392       -5.24362954509
67.008376047       -5.13776357972
67.5084385548       -4.98587323085
68.0085010626       -4.7922825236
68.5085635704       -4.56264650396
69.0086260783       -4.3033893522
69.5086885861       -4.02114837417
70.0087510939       -3.72229631495
70.5088136017       -3.41258461803
71.0088761095       -3.09691977216
71.5089386173       -2.77926132705
72.0090011251       -2.46261652162
72.509063633       -2.14910200838
73.0091261408       -1.84004517183
73.5091886486       -1.53610298989
74.0092511564       -1.23738285462
74.5093136642       -0.943555745213
75.009376172       -0.653956938996
75.5094386798       -0.367672914854
76.0095011876       -0.0836154080977
76.5095636955       0.199415009238
77.0096262033       0.482672647131
77.5096887111       0.767414126325
78.0097512189       1.05484574935
78.5098137267       1.34606702436
79.0098762345       1.64200668475
79.5099387423       1.9433479067
80.0100012502       2.25044016212
80.510063758       2.56319648064
81.0101262658       2.8809771144
81.5101887736       3.20246399562
82.0102512814       3.52553514637
82.5103137892       3.84715426402
83.010376297       4.16329745132
83.5104388049       4.46894506759
84.0105013127       4.75816956464
84.5105638205       5.02434682533
85.0106263283       5.26050596384
85.5106888361       5.4598095352
86.0107513439       5.61612503353
86.5108138517       5.72461660543
87.0108763595       5.78226396458
87.5109388674       5.78821432
88.0110013752       5.74389782089
88.511063883       5.65288298126
89.0111263908       5.52050205969
89.5111888986       5.35332029626
90.0112514064       5.15854443734
90.5113139142       4.94346179457
91.0113764221       4.71497726622
91.5114389299       4.47928335611
92.0115014377       4.24166785072
92.5115639455       4.00644203776
93.0116264533       3.77696102709
93.5116889611       3.55570530485
94.0117514689       3.34439604284
94.5118139767       3.14412283972
95.0118764846       2.95546922035
95.5119389924       2.77862705276
96.0120015002       2.61349552279
96.512064008       2.45976339805
97.0121265158       2.31697522759
97.5121890236       2.18458315683
98.0122515314       2.06198646705
98.5123140393       1.94856100436
99.0123765471       1.84368050815
99.5124390549       1.74673159544
100.012501563       1.65712387422
100.512564071       1.57429638432
101.012626578       1.49772131909
101.512689086       1.42690577209
102.012751594       1.36139208011
102.512814102       1.3007571961
103.01287661       1.24461141553
103.512939117       1.1925966953
104.013001625       1.14438473896
104.513064133       1.09967497269
105.013126641       1.0581924992
105.513189149       1.01968608933
106.013251656       0.983926250473
106.513314164       0.950703396444
107.013376672       0.919826132537
107.51343918       0.891119661989
108.013501688       0.864424314888
108.513564196       0.839594196934
109.013626703       0.816495953185
109.513689211       0.795007640479
110.013751719       0.77501770145
110.513814227       0.75642403273
111.013876735       0.739133139903
111.513939242       0.723059371974
112.01400175       0.708124228428
112.514064258       0.694255732377
113.014126766       0.681387863723
113.514189274       0.66946004674
114.014251781       0.658416686941
114.514314289       0.648206752529
115.014376797       0.638783396192
115.514439305       0.63010361336
116.014501813       0.622127933459
116.514564321       0.614820141004
117.014626828       0.608147023714
117.514689336       0.602078145119
118.014751844       0.596585639366
118.514814352       0.59164402622
119.01487686       0.587230044409
119.514939367       0.583322501718
120.015001875       0.579902140375
120.515064383       0.576951516454
121.015126891       0.574454892148
121.515189399       0.572398139929
122.015251906       0.57076865769
122.515314414       0.569555294121
123.015376922       0.56874828364
123.51543943       0.568339190298
124.015501938       0.568320860197
124.515564446       0.568687381989
125.015626953       0.56943405515
125.515689461       0.570557365768
126.015751969       0.572054969665
126.515814477       0.573925682746
127.015876985       0.576169478525
127.515939492       0.578787492858
128.016002       0.581782035972
128.516064508       0.585156611958
129.016127016       0.588915945962
129.516189524       0.593066019374
130.016252032       0.597614113424
130.516314539       0.602568861644
131.016377047       0.607940311755
131.516439555       0.613739997656
132.016502063       0.619981022251
132.516564571       0.62667815201
133.016627078       0.633847924241
133.516689586       0.641508768201
134.016752094       0.64968114131
134.516814602       0.658387681888
135.01687711       0.667653379972
135.516939617       0.677505767986
136.017002125       0.687975133168
136.517064633       0.699094753878
137.017127141       0.710901162079
137.517189649       0.723434434479
138.017252157       0.736738514965
138.517314664       0.750861571135
139.017377172       0.765856387784
139.51743968       0.781780800244
140.017502188       0.798698170373
140.517564696       0.81667790773
141.017627203       0.835796037966
141.517689711       0.856135819668
142.017752219       0.877788409597
142.517814727       0.900853574374
143.017877235       0.925440443943
143.517939742       0.951668298229
144.01800225       0.97966737304
144.518064758       1.00957966379
145.018127266       1.04155969552
145.518189774       1.07577521405
146.018252282       1.11240773495
146.518314789       1.15165286293
147.018377297       1.19372026308
147.518439805       1.23883312475
148.018502313       1.2872269076
148.518564821       1.33914709523
149.018627328       1.39484560334
149.518689836       1.45457539743
150.018752344       1.51858277044
150.518814852       1.5870966219
151.01887736       1.66031397896
151.518939867       1.73838093201
152.019002375       1.82136816241
152.519064883       1.9092403775
153.019127391       2.00181932228
153.519189899       2.09874071282
154.019252407       2.1994065484
154.519314914       2.30293589703
155.019377422       2.40811941989
155.51943993       2.51338543525
156.019502438       2.6167877709
156.519564946       2.71602720072
157.019627453       2.80851776486
157.519689961       2.89150552004
158.019752469       2.96223951484
158.519814977       3.01818349555
159.019877485       3.05724425838
159.519939992       3.07798256956
160.0200025       3.07976953618
160.520065008       3.06285801192
161.020127516       3.02835441594
161.520190024       2.97809679048
162.020252532       2.91446349648
162.520315039       2.84014796934
163.020377547       2.75793603409
163.520440055       2.6705148511
164.020502563       2.58033056864
164.520565071       2.48949950898
165.020627578       2.39976825211
165.520690086       2.3125125061
166.020752594       2.22876286002
166.520815102       2.14924631732
167.02087761       2.07443468123
167.520940118       2.00459343681
168.021002625       1.93982714037
168.521065133       1.88011920668
169.021127641       1.82536531963
169.521190149       1.77540054609
170.021252657       1.73002071447
170.521315164       1.68899884088
171.021377672       1.65209744007
171.52144018       1.61907751695
172.021502688       1.58970494382
172.521565196       1.56375482129
173.021627703       1.54101431261
173.521690211       1.52128434396
174.021752719       1.50438047789
174.521815227       1.49013319754
175.021877735       1.47838778222
175.521940243       1.46900390986
176.02200275       1.46185508693
176.522065258       1.4568279794
177.022127766       1.45382169767
177.522190274       1.45274707316
178.022252782       1.45352595253
178.522315289       1.45609052723
179.022377797       1.46038270977
179.522440305       1.46635356374
180.022502813       1.4739627916
180.522565321       1.48317828175
181.022627828       1.49397571555
181.522690336       1.50633823353
182.022752844       1.52025615977
182.522815352       1.53572678337
183.02287786       1.55275419563
183.522940368       1.5713491818
184.023002875       1.59152916681
184.523065383       1.61331821422
185.023127891       1.63674707848
185.523190399       1.66185331081
186.023252907       1.6886814196
186.523315414       1.71728308661
187.023377922       1.74771744109
187.52344043       1.78005139414
188.023502938       1.81436003673
188.523565446       1.85072710488
189.023627953       1.88924551678
189.523690461       1.93001798694
190.023752969       1.97315772334
190.523815477       2.01878921451
191.023877985       2.06704911391
191.523940493       2.11808723026
192.024003       2.17206763287
192.524065508       2.22916988216
193.024128016       2.28959039592
193.524190524       2.35354396267
194.024253032       2.42126541372
194.524315539       2.49301146543
195.024378047       2.56906274265
195.524440555       2.64972599306
196.024503063       2.73533649966
196.524565571       2.82626069478
197.024628079       2.92289897313
197.524690586       3.02568869246
198.024753094       3.13510733806
198.524815602       3.25167580939
199.02487811       3.3759617626
199.524940618       3.5085829091
200.025003125       3.65021012434
200.525065633       3.80157016008
201.025128141       3.96344767135
201.525190649       4.1366861627
202.025253157       4.32218731829
202.525315664       4.52090800201
203.025378172       4.73385398728
203.52544068       4.96206919657
204.025503188       5.20661889273
204.525565696       5.46856487209
205.025628204       5.74893027578
205.525690711       6.04865119922
206.025753219       6.36851190762
206.525815727       6.70906027804
207.025878235       7.07050027602
207.525940743       7.45255911313
208.02600325       7.85432859543
208.526065758       8.27408350957
209.026128266       8.7090851484
209.526190774       9.15538552692
210.026253282       9.60765729264
210.526315789       10.059084735
211.026378297       10.5013602972
211.526440805       10.9248347482
212.026503313       11.3188627826
212.526565821       11.6723647708
213.026628329       11.9745881473
213.526690836       12.2160028798
214.026753344       12.3892164128
214.526815852       12.4897616847
215.02687836       12.5166135516
215.526940868       12.4723309423
216.027003375       12.3627956949
216.527065883       12.1966019942
217.027128391       11.9842161016
217.527190899       11.7370558509
218.027253407       11.4666294978
218.527315914       11.1838344702
219.027378422       10.8984658525
219.52744093       10.6189381076
220.027503438       10.3521911396
220.527565946       10.1037356242
221.027628454       9.87778979619
221.527690961       9.67746574388
222.027753469       9.50497302768
222.527815977       9.36181773346
223.027878485       9.24898396838
223.527940993       9.16709156897
224.0280035       9.11652840713
224.528066008       9.09755850113
225.028128516       9.11040862324
225.528191024       9.1553366706
226.028253532       9.23268507371
226.52831604       9.34292220064
227.028378547       9.48667423651
227.528441055       9.66474947186
228.028503563       9.87815636839
228.528566071       10.1281162047
229.028628579       10.4160705333
229.528691086       10.7436830872
230.028753594       11.1128351354
230.528816102       11.5256125747
231.02887861       11.9842822223
231.528941118       12.4912538316
232.029003625       13.0490232524
232.529066133       13.6600909306
233.029128641       14.3268486191
233.529191149       15.0514258789
234.029253657       15.8354869101
234.529316165       16.6799678402
235.029378672       17.5847454237
235.52944118       18.5482310146
236.029503688       19.5668898251
236.529566196       20.6346961888
237.029628704       21.7425520817
237.529691211       22.8777191335
238.029753719       24.0233428536
238.529816227       25.1581781052
239.029878735       26.2566492807
239.529941243       27.2893852042
240.03000375       28.2243429386
240.530066258       29.0285642078
241.030128766       29.6704911796
241.530191274       30.1226216476
242.030253782       30.3641455735
242.53031629       30.3831271697
243.030378797       30.1778235137
243.530441305       29.7568741296
244.030503813       29.1383222066
244.530566321       28.3476670338
245.030628829       27.4153229052
245.530691336       26.3739245424
246.030753844       25.255870911
246.530816352       24.0913746907
247.03087886       22.9071356023
247.530941368       21.7256264752
248.031003875       20.5648951049
248.531066383       19.4387458903
249.031128891       18.3571630737
249.531191399       17.3268576258
250.031253907       16.3518492898
250.531316415       15.4340249479
251.031378922       14.5736394153
251.53144143       13.7697433433
252.031503938       13.020535361
252.531566446       12.3236430396
253.031628954       11.6763410835
253.531691461       11.0757165385
254.031753969       10.5187907312
254.531816477       10.0026067856
255.031878985       9.524290343
255.531941493       9.0810898249
256.032004001       8.67040135931
256.532066508       8.28978241984
257.032129016       7.93695732351
257.532191524       7.60981699372
258.032254032       7.30641480461
258.53231654       7.02495985924
259.032379047       6.76380869539
259.532441555       6.52145613816
260.032504063       6.29652581115
260.532566571       6.08776066273
261.032629079       5.89401374828
261.532691586       5.71423942492
262.032754094       5.54748505397
262.532816602       5.39288326196
263.03287911       5.2496447807
263.532941618       5.117051865
264.033004126       4.99445227284
264.533066633       4.88125378338
265.033129141       4.77691922313
265.533191649       4.68096196759
266.033254157       4.59294188501
266.533316665       4.51246168918
267.033379172       4.43916366956
