#  x                 y             frequency           rot. str.
0.0      -0.773049418304      22.87      -0.89
0.500062507813      -0.793747097125      31.92      -6.89
1.00012501563      -0.815339975994      55.67      -9.70
1.50018752344      -0.837881877633      64.59      -4.23
2.00025003125      -0.86143071676      166.27      -1.37
2.50031253907      -0.886048865131      185.88      -1.28
3.00037504688      -0.911803551774      244.75      0.32
3.50043755469      -0.93876730158      271.05      -1.67
4.00050006251      -0.967018415486      299.82      -8.88
4.50056257032      -0.996641495545      335.27      0.89
5.00062507813      -1.02772801808      356.34      0.75
5.50068758595      -1.06037695794      384.51      -5.25
6.00075009376      -1.09469546622      421.59      -4.09
6.50081260158      -1.13079960338      430.99      1.56
7.00087510939      -1.16881512802      491.23      3.97
7.5009376172      -1.20887834001      524.50      -13.88
8.00100012502      -1.25113697405      559.25      -52.19
8.50106263283      -1.29575113576      596.03      38.98
9.00112514064      -1.3428942675      633.43      56.13
9.50118764846      -1.39275412384      659.83      -0.45
10.0012501563      -1.44553372751      724.42      15.98
10.5013126641      -1.5014522639      750.01      5.49
11.0013751719      -1.56074585631      793.81      76.48
11.5014376797      -1.62366814346      811.57      -7.90
12.0015001875      -1.69049055508      823.87      61.42
12.5015626953      -1.76150215021      843.86      -138.01
13.0016252032      -1.83700884612      866.73      28.46
13.501687711      -1.91733182514      883.85      5.34
14.0017502188      -2.00280486518      912.10      38.16
14.5018127266      -2.09377030319      938.48      17.49
15.0018752344      -2.19057332103      958.50      -0.38
15.5019377422      -2.29355425606      982.17      -11.44
16.00200025      -2.40303871009      1036.35      -0.25
16.5020627578      -2.51932539274      1112.48      -57.09
17.0021252657      -2.64267192773      1127.54      -9.48
17.5021877735      -2.77327931082      1147.81      -51.39
18.0022502813      -2.91127635429      1165.34      17.31
18.5023127891      -3.05670625855      1190.78      31.97
19.0023752969      -3.20951830687      1199.43      3.13
19.5024378047      -3.36956835491      1235.49      -3.01
20.0025003125      -3.53663191907      1286.32      27.09
20.5025628204      -3.71043280883      1288.07      -18.28
21.0026253282      -3.8906880059      1296.72      -6.04
21.502687836      -4.07716577461      1343.91      -17.04
22.0027503438      -4.26974925895      1360.12      -5.28
22.5028128516      -4.4684932215      1360.57      0.07
23.0028753594      -4.67365870277      1366.58      -9.33
23.5029378672      -4.88571067504      1402.56      -29.94
24.003000375      -5.10526777994      1475.15      -6.88
24.5030628829      -5.33300017593      1489.45      -0.49
25.0031253907      -5.56947948104      1552.01      7.47
25.5031878985      -5.8149916906      1636.20      1.29
26.0032504063      -6.0693285372      1659.25      1.64
26.5033129141      -6.33157518045      1664.63      18.48
27.0033754219      -6.59991360529      1805.64      -27.42
27.5034379297      -6.87146311623      3035.53      -1.71
28.0035004376      -7.14218248589      3073.16      -4.54
28.5035629454      -7.40686178496      3088.78      3.46
29.0036254532      -7.65923315161      3151.31      0.99
29.503687961      -7.89222506634      3160.54      -1.41
30.0037504688      -8.09837053249      3188.98      4.97
30.5038129766      -8.27035449545      3195.33      -1.44
31.0038754844      -8.40165267949      3494.27      -0.58
31.5039379922      -8.48718088388      3571.52      5.19
32.0040005001      -8.52385258633      3725.66      -1.10
32.5040630079      -8.51094468848      3799.84      4.88
33.0041255157       -8.45020096755
33.5041880235       -8.34565417651
34.0042505313       -8.20320524637
34.5043130391       -8.030043348
35.0043755469       -7.83401078437
35.5044380548       -7.62300943158
36.0045005626       -7.40451814081
36.5045630704       -7.18525529154
37.0046255782       -6.97098864165
37.504688086       -6.76647229118
38.0047505938       -6.57547948585
38.5048131016       -6.40089817523
39.0048756095       -6.24486033554
39.5049381173       -6.10888283241
40.0050006251       -5.99400469679
40.5050631329       -5.90091180342
41.0051256407       -5.83004456549
41.5051881485       -5.78168738901
42.0052506563       -5.75604050744
42.5053131641       -5.75327575441
43.005375672       -5.77357812216
43.5054381798       -5.81717482537
44.0055006876       -5.88435320932
44.5055631954       -5.97546831369
45.0056257032       -6.09094029458
45.505688211       -6.23124125524
46.0057507188       -6.39687036766
46.5058132267       -6.588315514
47.0058757345       -6.80599908805
47.5059382423       -7.05020516022
48.0060007501       -7.32098506921
48.5060632579       -7.61803888136
49.0061257657       -7.94057136819
49.5061882735       -8.28712359775
50.0062507813       -8.65538535953
50.5063132892       -9.04199981935
51.006375797       -9.44238010027
51.5064383048       -9.85056733406
52.0065008126       -10.2591694774
52.5065633204       -10.6594267808
53.0066258282       -11.0414488361
53.506688336       -11.3946547674
54.0067508439       -11.7084191236
54.5068133517       -11.9728825406
55.0068758595       -12.1798363309
55.5069383673       -12.3235486286
56.0070008751       -12.4013839626
56.5070633829       -12.4140902131
57.0071258907       -12.3656860013
57.5071883985       -12.2629616599
58.0072509064       -12.1146828087
58.5073134142       -11.9306340985
59.007375922       -11.7206510229
59.5074384298       -11.4937642011
60.0075009376       -11.2575380791
60.5075634454       -11.0176414903
61.0076259532       -10.7776528555
61.5076884611       -10.539082042
62.0077509689       -10.3015813502
62.5078134767       -10.0633135911
63.0078759845       -9.82143970313
63.5079384923       -9.57267880543
64.0080010001       -9.31388147595
64.5080635079       -9.04254797712
65.0081260158       -8.75722427191
65.5081885236       -8.45772471921
66.0082510314       -8.14516023499
66.5083135392       -7.82178695532
67.008376047       -7.49072213495
67.5084385548       -7.15559191778
68.0085010626       -6.82017618182
68.5085635704       -6.488101823
69.0086260783       -6.16261457965
69.5086885861       -5.84643820423
70.0087510939       -5.5417135385
70.5088136017       -5.25000073891
71.0088761095       -4.97232489471
71.5089386173       -4.70924666349
72.0090011251       -4.46094322237
72.509063633       -4.22728914926
73.0091261408       -4.00793079524
73.5091886486       -3.80235082502
74.0092511564       -3.60992180151
74.5093136642       -3.42994908261
75.009376172       -3.26170407144
75.5094386798       -3.10444920324
76.0095011876       -2.95745612085
76.5095636955       -2.8200184028
77.0096262033       -2.69146004415
77.5096887111       -2.57114070018
78.0097512189       -2.45845851565
78.5098137267       -2.35285119409
79.0098762345       -2.25379581653
79.5099387423       -2.16080779947
80.0100012502       -2.07343928584
80.510063758       -1.99127718674
81.0101262658       -1.91394103252
81.5101887736       -1.84108074712
82.0102512814       -1.77237442516
82.5103137892       -1.70752616582
83.010376297       -1.64626399885
83.5104388049       -1.58833792425
84.0105013127       -1.53351807713
84.5105638205       -1.48159302249
85.0106263283       -1.43236817964
85.5106888361       -1.38566437275
86.0107513439       -1.34131650199
86.5108138517       -1.29917232829
87.0108763595       -1.25909136429
87.5109388674       -1.22094386366
88.0110013752       -1.18460990093
88.511063883       -1.14997853456
89.0111263908       -1.1169470458
89.5111888986       -1.08542024687
90.0112514064       -1.05530985196
90.5113139142       -1.02653390547
91.0113764221       -0.999016262003
91.5114389299       -0.972686113337
92.0115014377       -0.947477557932
92.5115639455       -0.92332920892
93.0116264533       -0.900183836947
93.5116889611       -0.877988044564
94.0117514689       -0.856691969177
94.5118139767       -0.836249011858
95.0118764846       -0.816615589592
95.5119389924       -0.797750908755
96.0120015002       -0.779616757857
96.512064008       -0.762177317749
97.0121265158       -0.745398987704
97.5121890236       -0.729250225899
98.0122515314       -0.713701403011
98.5123140393       -0.698724667721
99.0123765471       -0.684293823086
99.5124390549       -0.670384212785
100.012501563       -0.656972616395
100.512564071       -0.644037152893
101.012626578       -0.631557191671
101.512689086       -0.619513270429
102.012751594       -0.607887019355
102.512814102       -0.596661091052
103.01287661       -0.585819095753
103.512939117       -0.57534554137
104.013001625       -0.565225777981
104.513064133       -0.555445946407
105.013126641       -0.545992930538
105.513189149       -0.536854313115
106.013251656       -0.528018334698
106.513314164       -0.519473855567
107.013376672       -0.511210320339
107.51343918       -0.503217725083
108.013501688       -0.495486586754
108.513564196       -0.488007914774
109.013626703       -0.480773184598
109.513689211       -0.473774313127
110.013751719       -0.467003635834
110.513814227       -0.46045388548
111.013876735       -0.454118172325
111.513939242       -0.447989965712
112.01400175       -0.442063076955
112.514064258       -0.436331643428
113.014126766       -0.430790113791
113.514189274       -0.425433234284
114.014251781       -0.420256036019
114.514314289       -0.415253823212
115.014376797       -0.410422162313
115.514439305       -0.405756871974
116.014501813       -0.401254013823
116.514564321       -0.396909883998
117.014626828       -0.392721005409
117.514689336       -0.388684120706
118.014751844       -0.384796185906
118.514814352       -0.381054364678
119.01487686       -0.377456023259
119.514939367       -0.373998725972
120.015001875       -0.370680231353
120.515064383       -0.367498488865
121.015126891       -0.364451636188
121.515189399       -0.361537997096
122.015251906       -0.358756079907
122.515314414       -0.356104576512
123.015376922       -0.353582361994
123.51543943       -0.351188494836
124.015501938       -0.348922217744
124.515564446       -0.346782959083
125.015626953       -0.344770334966
125.515689461       -0.34288415201
126.015751969       -0.341124410777
126.515814477       -0.339491309961
127.015876985       -0.337985251328
127.515939492       -0.336606845478
128.016002       -0.335356918454
128.516064508       -0.334236519286
129.016127016       -0.333246928496
129.516189524       -0.332389667663
130.016252032       -0.331666510115
130.516314539       -0.331079492838
131.016377047       -0.330630929704
131.516439555       -0.330323426117
132.016502063       -0.330159895222
132.516564571       -0.330143575786
133.016627078       -0.330278051929
133.516689586       -0.330567274853
134.016752094       -0.331015586779
134.516814602       -0.331627747278
135.01687711       -0.332408962251
135.516939617       -0.333364915809
136.017002125       -0.334501805341
136.517064633       -0.335826380092
137.017127141       -0.337345983616
137.517189649       -0.339068600499
138.017252157       -0.341002907788
138.517314664       -0.343158331632
139.017377172       -0.345545109676
139.51743968       -0.348174359816
140.017502188       -0.351058155986
140.517564696       -0.354209611742
141.017627203       -0.35764297244
141.517689711       -0.36137371695
142.017752219       -0.365418669892
142.517814727       -0.369796125496
143.017877235       -0.374525984299
143.517939742       -0.37962990397
144.01800225       -0.385131465683
144.518064758       -0.391056357535
145.018127266       -0.397432576591
145.518189774       -0.404290651216
146.018252282       -0.411663885354
146.518314789       -0.419588626394
147.018377297       -0.428104558153
147.518439805       -0.437255020268
148.018502313       -0.447087354896
148.518564821       -0.457653280995
149.018627328       -0.469009295528
149.518689836       -0.481217099527
150.018752344       -0.494344045039
150.518814852       -0.508463596201
151.01887736       -0.523655793923
151.518939867       -0.540007708471
152.019002375       -0.557613857288
152.519064883       -0.576576556023
153.019127391       -0.597006158385
153.519189899       -0.619021124223
154.019252407       -0.642747834264
154.519314914       -0.668320043117
155.019377422       -0.69587782854
155.51943993       -0.725565853622
156.019502438       -0.757530709316
156.519564946       -0.791917048312
157.019627453       -0.828862160711
157.519689961       -0.868488583425
158.019752469       -0.910894290586
158.519814977       -0.956140000874
159.019877485       -1.00423318972
159.519939992       -1.05510855267
160.0200025       -1.10860498625
160.520065008       -1.1644396985
161.020127516       -1.2221808884
161.520190024       -1.28122156442
162.020252532       -1.34075844488
162.520315039       -1.39978129679
163.020377547       -1.45707912796
163.520440055       -1.5112697586
164.020502563       -1.56085777273
164.520565071       -1.60432216358
165.020627578       -1.64022916889
165.520690086       -1.66735879655
166.020752594       -1.68482732221
166.520815102       -1.69218505311
167.02087761       -1.68947081623
167.520940118       -1.67721218071
168.021002625       -1.65637143312
168.521065133       -1.62824832662
169.021127641       -1.59435816133
169.521190149       -1.55630589737
170.021252657       -1.51567399937
170.521315164       -1.47393548215
171.021377672       -1.43239662892
171.52144018       -1.39216803444
172.021502688       -1.35415893791
172.521565196       -1.31908828052
173.021627703       -1.28750602237
173.521690211       -1.25981929622
174.021752719       -1.23631936478
174.521815227       -1.21720669114
175.021877735       -1.20261252395
175.521940243       -1.19261618135
176.02200275       -1.18725771056
176.522065258       -1.18654586372
177.022127766       -1.1904614322
177.522190274       -1.19895598786
178.022252782       -1.21194604861
178.522315289       -1.22930267388
179.022377797       -1.25083655938
179.522440305       -1.27627890174
180.022502813       -1.30525870646
180.522565321       -1.3372778764
181.022627828       -1.37168637351
181.522690336       -1.40766095706
182.022752844       -1.44419231206
182.522815352       -1.48008646159
183.02287786       -1.51398668875
183.522940368       -1.54442113643
184.023002875       -1.56987825539
184.523065383       -1.58890721454
185.023127891       -1.6002339579
185.523190399       -1.6028774324
186.023252907       -1.59624688187
186.523315414       -1.58020200091
187.023377922       -1.55506379929
187.52344043       -1.52157385972
188.023502938       -1.48081025129
188.523565446       -1.43407631632
189.023627953       -1.38278168629
189.523690461       -1.32833300088
190.023752969       -1.27204644148
190.523815477       -1.2150876296
191.023877985       -1.15843866318
191.523940493       -1.10288817067
192.024003       -1.04903843868
192.524065508       -0.997323502153
193.024128016       -0.948032938721
193.524190524       -0.901337397129
194.024253032       -0.857313201321
194.524315539       -0.815964484604
195.024378047       -0.77724214151
195.524440555       -0.741059446746
196.024503063       -0.707304529399
196.524565571       -0.675850065816
197.024628079       -0.646560620481
197.524690586       -0.619298063454
198.024753094       -0.593925455965
198.524815602       -0.570309742746
199.02487811       -0.54832353286
199.524940618       -0.52784619695
200.025003125       -0.508764461318
200.525065633       -0.490972639016
201.025128141       -0.474372605302
201.525190649       -0.458873598447
202.025253157       -0.444391906241
202.525315664       -0.43085048252
203.025378172       -0.418178525791
203.52544068       -0.406311042767
204.025503188       -0.39518841268
204.525565696       -0.384755963087
205.025628204       -0.374963564105
205.525690711       -0.365765245264
206.025753219       -0.357118837197
206.525815727       -0.348985639008
207.025878235       -0.341330111199
207.525940743       -0.334119593381
208.02600325       -0.32732404563
208.526065758       -0.320915812032
209.026128266       -0.314869404911
209.526190774       -0.309161308128
210.026253282       -0.303769797883
210.526315789       -0.298674779494
211.026378297       -0.293857638682
211.526440805       -0.28930110601
212.026503313       -0.284989133175
212.526565821       -0.280906779969
213.026628329       -0.277040110817
213.526690836       -0.273376099874
214.026753344       -0.269902543748
214.526815852       -0.266607981
215.02687836       -0.263481617629
215.526940868       -0.260513257809
216.027003375       -0.25769323922
216.527065883       -0.255012372337
217.027128391       -0.252461883091
217.527190899       -0.250033358374
218.027253407       -0.247718693833
218.527315914       -0.245510043499
219.027378422       -0.243399770739
219.52744093       -0.241380400086
220.027503438       -0.23944456949
220.527565946       -0.237584982532
221.027628454       -0.235794360156
221.527690961       -0.234065391477
222.027753469       -0.232390683183
222.527815977       -0.230762707103
223.027878485       -0.22917374544
223.527940993       -0.227615833218
224.0280035       -0.226080697465
224.528066008       -0.224559692658
225.028128516       -0.223043731998
225.528191024       -0.221523214107
226.028253532       -0.219987944797
226.52831604       -0.218427053694
227.028378547       -0.216828905626
227.528441055       -0.215181006948
228.028503563       -0.213469907295
228.528566071       -0.211681097742
229.028628579       -0.209798906994
229.528691086       -0.207806398173
230.028753594       -0.205685269966
230.528816102       -0.203415767612
231.02887861       -0.200976611391
231.528941118       -0.198344953268
232.029003625       -0.195496376166
232.529066133       -0.192404955367
233.029128641       -0.189043407858
233.529191149       -0.185383363462
234.029253657       -0.181395801328
234.529316165       -0.177051707015
235.029378672       -0.172323018659
235.52944118       -0.167183944929
236.029503688       -0.161612751036
236.529566196       -0.155594119228
237.029628704       -0.14912219221
237.529691211       -0.142204394644
238.029753719       -0.13486608908
238.529816227       -0.1271560452
239.029878735       -0.119152570273
239.529941243       -0.110969951283
240.03000375       -0.10276459114
240.530066258       -0.0947398984571
241.030128766       -0.0871486621804
241.530191274       -0.0802914040139
242.030253782       -0.0745091940752
242.53031629       -0.0701697990379
243.030378797       -0.0676469248288
243.530441305       -0.0672937001291
244.030503813       -0.0694131848859
244.530566321       -0.0742301120272
245.030628829       -0.0818687063571
245.530691336       -0.0923408409324
246.030753844       -0.105546961654
246.530816352       -0.121289614893
247.03087886       -0.139296870672
247.530941368       -0.159251240806
248.031003875       -0.180819268475
248.531066383       -0.203677726733
249.031128891       -0.227533844383
249.531191399       -0.252138605618
250.031253907       -0.27729350171
250.531316415       -0.302851940858
251.031378922       -0.328716850203
251.53144143       -0.354835959449
252.031503938       -0.381195999257
252.531566446       -0.407816715408
253.031628954       -0.434745281116
253.531691461       -0.462051429141
254.031753969       -0.489823435136
254.531816477       -0.518164958026
255.031878985       -0.547192668412
255.531941493       -0.577034557094
256.032004001       -0.607828799468
256.532066508       -0.639723047655
257.032129016       -0.672874023196
257.532191524       -0.707447283926
258.032254032       -0.743617035646
258.53231654       -0.781565849968
259.032379047       -0.821484132379
259.532441555       -0.863569157706
260.032504063       -0.908023452647
260.532566571       -0.955052256283
