#  x                 y             frequency           rot. str.
0.0      0.168401021188      35.67      5.08
0.500062507813      0.172691983141      45.47      -6.22
1.00012501563      0.177169721871      53.96      5.86
1.50018752344      0.181844993845      77.07      -6.19
2.00025003125      0.186729312051      148.16      1.16
2.50031253907      0.19183500839      237.50      8.89
3.00037504688      0.197175301923      247.11      46.71
3.50043755469      0.202764373579      283.78      1.20
4.00050006251      0.208617448009      302.67      -0.44
4.50056257032      0.214750883321      332.54      -1.43
5.00062507813      0.221182269552      338.13      -0.80
5.50068758595      0.227930536803      381.91      3.51
6.00075009376      0.235016074062      421.93      4.22
6.50081260158      0.242460859894      431.62      -4.71
7.00087510939      0.250288606256      470.93      3.43
7.5009376172      0.258524916891      525.48      -22.82
8.00100012502      0.267197461878      556.27      9.22
8.50106263283      0.276336170103      620.67      33.16
9.00112514064      0.285973441632      640.81      -28.30
9.50118764846      0.296144382139      660.13      3.60
10.0012501563      0.306887061826      732.90      6.34
10.5013126641      0.318242801475      767.56      39.19
11.0013751719      0.33025648858      794.45      -34.82
11.5014376797      0.342976926793      803.10      -37.23
12.0015001875      0.356457222182      819.46      1.49
12.5015626953      0.370755210168      843.91      6.74
13.0016252032      0.385933927262      855.73      -48.93
13.501687711      0.402062132042      869.05      -7.49
14.0017502188      0.41921488006      938.88      0.71
14.5018127266      0.437474157559      954.74      1.87
15.0018752344      0.456929578968      972.78      -22.08
15.5019377422      0.477679153069      1026.12      29.66
16.00200025      0.49983012243      1036.02      -0.81
16.5020627578      0.523499880049      1113.41      -17.80
17.0021252657      0.548816966031      1124.65      -40.98
17.5021877735      0.575922145332      1149.52      37.80
18.0022502813      0.604969564882      1171.00      -22.93
18.5023127891      0.636127984452      1191.63      -27.51
19.0023752969      0.669582069915      1199.54      0.77
19.5024378047      0.7055337296      1228.70      -44.22
20.0025003125      0.744203463356      1236.18      -25.48
20.5025628204      0.785831678819      1287.99      14.24
21.0026253282      0.830679908798      1316.28      25.44
21.502687836      0.879031836139      1325.87      -17.86
22.0027503438      0.931193995658      1351.90      -22.52
22.5028128516      0.987495974313      1363.31      31.57
23.0028753594      1.04828986756      1369.96      -61.45
23.5029378672      1.11394866827      1451.82      42.35
24.003000375      1.18486316092      1475.24      9.19
24.5030628829      1.26143676414      1487.18      3.79
25.0031253907      1.34407760656      1551.53      -6.61
25.5031878985      1.43318693342      1635.22      3.05
26.0032504063      1.5291427292      1643.07      -39.23
26.5033129141      1.63227721707      1659.50      8.69
27.0033754219      1.74284668523      1807.33      88.40
27.5034379297      1.86099194226      3030.65      1.77
28.0035004376      1.98668769486      3066.15      9.00
28.5035629454      2.11967939419      3085.34      0.84
29.0036254532      2.25940677582      3151.37      -1.77
29.503687961      2.40491464053      3160.03      2.86
30.0037504688      2.5547536228      3175.84      -2.31
30.5038129766      2.70687697175      3195.69      1.70
31.0038754844      2.85854376651      3482.83      2.12
31.5039379922      3.00624421142      3564.16      -2.00
32.0040005001      3.14566785067      3711.45      14.06
32.5040630079      3.27173911566      3799.52      -5.49
33.0041255157       3.37874427604
33.5041880235       3.46056707715
34.0042505313       3.51103540681
34.5043130391       3.524358848
35.0043755469       3.49561113448
35.5044380548       3.42119007533
36.0045005626       3.29917952974
36.5045630704       3.12954980571
37.0046255782       2.91416394504
37.504688086       2.65659927434
38.0047505938       2.36183294756
38.5048131016       2.03586459663
39.0048756095       1.68535257302
39.5049381173       1.31732450174
40.0050006251       0.938995467921
40.5050631329       0.557696947998
41.0051256407       0.180893337141
41.5051881485       -0.18375589314
42.0052506563       -0.528340709613
42.5053131641       -0.844705679166
43.005375672       -1.12456227007
43.5054381798       -1.35973734357
44.0055006876       -1.54255963511
44.5055631954       -1.66635197267
45.0056257032       -1.72596328813
45.505688211       -1.71825162465
46.0057507188       -1.64242747966
46.5058132267       -1.50019049263
47.0058757345       -1.29563675994
47.5059382423       -1.0349651508
48.0060007501       -0.726051865427
48.5060632579       -0.377980387426
49.0061257657       -0.000605596498596
49.5061882735       0.395797819538
50.0062507813       0.8007900209
50.5063132892       1.20394587732
51.006375797       1.59500563064
51.5064383048       1.96404945951
52.0065008126       2.301739432
52.5065633204       2.59964752539
53.0066258282       2.85065369241
53.506688336       3.04936226599
54.0067508439       3.19245964372
54.5068133517       3.27893146834
55.0068758595       3.31007788462
55.5069383673       3.28930618297
56.0070008751       3.22172816683
56.5070633829       3.11362893427
57.0071258907       2.97189270009
57.5071883985       2.80346690242
58.0072509064       2.61492382668
58.5073134142       2.41214947352
59.007375922       2.20016199231
59.5074384298       1.98304257197
60.0075009376       1.76395179892
60.5075634454       1.54520265439
61.0076259532       1.32836469918
61.5076884611       1.11437980067
62.0077509689       0.903675947744
62.5078134767       0.696271103871
63.0078759845       0.491863199752
63.5079384923       0.289905247708
64.0080010001       0.0896663756896
64.5080635079       -0.109719394423
65.0081260158       -0.309214299551
65.5081885236       -0.509845409024
66.0082510314       -0.712678082424
66.5083135392       -0.918791803421
67.008376047       -1.12925590204
67.5084385548       -1.3451026619
68.0085010626       -1.56729525655
68.5085635704       -1.79668790026
69.0086260783       -2.03397559709
69.5086885861       -2.27963103578
70.0087510939       -2.53382666779
70.5088136017       -2.79634104187
71.0088761095       -3.06645032516
71.5089386173       -3.34280890666
72.0090011251       -3.62332727184
72.509063633       -3.9050609446
73.0091261408       -4.18413073367
73.5091886486       -4.45570057669
74.0092511564       -4.71404280541
74.5093136642       -4.95271872986
75.009376172       -5.16489204979
75.5094386798       -5.34377209866
76.0095011876       -5.48315486463
76.5095636955       -5.57799821423
77.0096262033       -5.62494386585
77.5096887111       -5.62269324954
78.0097512189       -5.57216376384
78.5098137267       -5.47639348165
79.0098762345       -5.34021409997
79.5099387423       -5.16975731558
80.0100012502       -4.97188516289
80.510063758       -4.75363512977
81.0101262658       -4.52175053318
81.5101887736       -4.28233593296
82.0102512814       -4.04064696718
82.5103137892       -3.80100111746
83.010376297       -3.5667831374
83.5104388049       -3.34051515392
84.0105013127       -3.12396394299
84.5105638205       -2.91826354645
85.0106263283       -2.72403787138
85.5106888361       -2.54151376629
86.0107513439       -2.37061966087
86.5108138517       -2.21106808568
87.0108763595       -2.06242243091
87.5109388674       -1.92414943813
88.0110013752       -1.79565942448
88.511063883       -1.67633634466
89.0111263908       -1.56555967434
89.5111888986       -1.46271986409
90.0112514064       -1.3672288405
90.5113139142       -1.27852676182
91.0113764221       -1.19608599183
91.5114389299       -1.11941304659
92.0115014377       -1.04804909536
92.5115639455       -0.981569457138
93.0116264533       -0.919582423521
93.5116889611       -0.86172765274
94.0117514689       -0.807674313028
94.5118139767       -0.757119103462
95.0118764846       -0.70978424233
95.5119389924       -0.665415484918
96.0120015002       -0.623780211732
96.512064008       -0.58466561298
97.0121265158       -0.547876984163
97.5121890236       -0.513236139819
98.0122515314       -0.480579947048
98.5123140393       -0.449758976737
99.0123765471       -0.420636267959
99.5124390549       -0.393086199556
100.012501563       -0.366993462023
100.512564071       -0.342252122453
101.012626578       -0.31876477525
101.512689086       -0.296441771446
102.012751594       -0.275200519773
102.512814102       -0.254964853038
103.01287661       -0.235664453738
103.512939117       -0.217234333351
104.013001625       -0.199614360144
104.513064133       -0.182748830816
105.013126641       -0.166586081673
105.513189149       -0.151078135454
106.013251656       -0.136180380284
106.513314164       -0.121851277546
107.013376672       -0.108052095804
107.51343918       -0.0947466681619
108.013501688       -0.0819011707086
108.513564196       -0.06948391993
109.013626703       -0.0574651871652
109.513689211       -0.0458170283787
110.013751719       -0.0345131276819
110.513814227       -0.023528653183
111.013876735       -0.0128401238816
111.513939242       -0.00242528643428
112.01400175       0.00773699927173
112.514064258       0.0176668667145
113.014126766       0.027383542396
113.514189274       0.0369054393879
114.014251781       0.0462502455283
114.514314289       0.0554350069803
115.014376797       0.0644762078183
115.514439305       0.073389846272
116.014501813       0.0821915082269
116.514564321       0.0908964385563
117.014626828       0.099519610844
117.514689336       0.108075796043
118.014751844       0.116579630612
118.514814352       0.125045684672
119.01487686       0.133488530732
119.514939367       0.141922813537
120.015001875       0.150363321629
120.515064383       0.158825061209
121.015126891       0.167323332945
121.515189399       0.175873812383
122.015251906       0.184492634688
122.515314414       0.193196484455
123.015376922       0.202002691435
123.51543943       0.21092933303
124.015501938       0.219995344527
124.515564446       0.229220638073
125.015626953       0.238626231509
125.515689461       0.248234388227
126.015751969       0.258068769311
126.515814477       0.268154599291
127.015876985       0.27851884689
127.515939492       0.289190422196
128.016002       0.300200391684
128.516064508       0.31158221247
129.016127016       0.323371987056
129.516189524       0.335608739607
130.016252032       0.348334714397
130.516314539       0.361595696506
131.016377047       0.375441353935
131.516439555       0.389925599089
132.016502063       0.405106965733
132.516564571       0.421048995061
133.016627078       0.437820621069
133.516689586       0.455496540723
134.016752094       0.474157548117
134.516814602       0.493890803394
135.01687711       0.514789996066
135.516939617       0.536955347843
136.017002125       0.560493381292
136.517064633       0.585516356792
137.017127141       0.612141250349
137.517189649       0.64048810843
138.017252157       0.670677572789
138.517314664       0.702827319465
139.017377172       0.737047104576
139.51743968       0.77343206149
140.017502188       0.812053860477
140.517564696       0.852949341374
141.017627203       0.896106289735
141.517689711       0.941446186124
142.017752219       0.988804065803
142.517814727       1.03790613583
143.017877235       1.08834655267
143.517939742       1.13956577232
144.01800225       1.1908340745
144.518064758       1.24124502856
145.018127266       1.28972443981
145.518189774       1.33506015878
146.018252282       1.37595647734
146.518314789       1.41111329982
147.018377297       1.43932503751
147.518439805       1.45958822877
148.018502313       1.47120203482
148.518564821       1.47384407054
149.018627328       1.46760688989
149.518689836       1.45298766895
150.018752344       1.43083322028
150.518814852       1.40225137645
151.01887736       1.3685052551
151.518939867       1.3309077178
152.019002375       1.29073003699
152.519064883       1.24913320176
153.019127391       1.2071244733
153.519189899       1.16553723104
154.019252407       1.12502944844
154.519314914       1.08609519618
155.019377422       1.04908388905
155.51943993       1.01422299245
156.019502438       0.981641116006
156.519564946       0.951389549179
157.019627453       0.923461195839
157.519689961       0.897806510269
158.019752469       0.874346452557
158.519814977       0.852982717955
159.019877485       0.833605605421
159.519939992       0.816099920156
160.0200025       0.800349287271
160.520065008       0.78623921217
161.020127516       0.773659172645
161.520190024       0.762503976741
162.020252532       0.752674573933
162.520315039       0.744078466818
163.020377547       0.736629837008
163.520440055       0.730249471755
164.020502563       0.724864556265
164.520565071       0.720408379835
165.020627578       0.716819991002
165.520690086       0.714043826992
166.020752594       0.712029335354
166.520815102       0.710730600086
167.02087761       0.710105980477
167.520940118       0.710117767877
168.021002625       0.71073186345
168.521065133       0.711917478421
169.021127641       0.713646857244
169.521190149       0.715895023385
170.021252657       0.718639546937
170.521315164       0.721860332959
171.021377672       0.725539429271
171.52144018       0.72966085237
172.021502688       0.734210430074
172.521565196       0.739175659569
173.021627703       0.744545579572
173.521690211       0.750310655381
174.021752719       0.756462675684
174.521815227       0.762994660091
175.021877735       0.7699007764
175.521940243       0.77717626675
176.02200275       0.784817381848
176.522065258       0.792821322541
177.022127766       0.801186188121
177.522190274       0.809910930737
178.022252782       0.818995315425
178.522315289       0.828439885284
179.022377797       0.838245931374
179.522440305       0.848415466985
180.022502813       0.858951205942
180.522565321       0.869856544668
181.022627828       0.88113554775
181.522690336       0.892792936791
182.022752844       0.90483408237
182.522815352       0.917264998934
183.02287786       0.930092342498
183.522940368       0.943323411032
184.023002875       0.956966147455
184.523065383       0.971029145149
185.023127891       0.985521655959
185.523190399       1.00045360063
186.023252907       1.01583558165
186.523315414       1.03167889856
187.023377922       1.04799556565
187.52344043       1.06479833218
188.023502938       1.082100705
188.523565446       1.09991697393
189.023627953       1.11826223958
189.523690461       1.13715244408
190.023752969       1.15660440456
190.523815477       1.17663584963
191.023877985       1.19726545899
191.523940493       1.2185129063
192.024003       1.2403989055
192.524065508       1.26294526083
193.024128016       1.28617492064
193.524190524       1.31011203542
194.024253032       1.33478202013
194.524315539       1.3602116213
195.024378047       1.38642898909
195.524440555       1.41346375471
196.024503063       1.44134711365
196.524565571       1.47011191511
197.024628079       1.49979275798
197.524690586       1.53042609416
198.024753094       1.56205033949
198.524815602       1.59470599311
199.02487811       1.62843576582
199.524940618       1.66328471823
200.025003125       1.69930040952
200.525065633       1.73653305765
201.025128141       1.77503571204
201.525190649       1.8148644398
202.025253157       1.85607852669
202.525315664       1.89874069403
203.025378172       1.94291733316
203.52544068       1.98867875881
204.025503188       2.03609948328
204.525565696       2.08525851329
205.025628204       2.13623967152
205.525690711       2.18913194531
206.025753219       2.24402986493
206.525815727       2.30103391439
207.025878235       2.36025097784
207.525940743       2.42179482501
208.02600325       2.48578663954
208.526065758       2.55235559452
209.026128266       2.62163947974
209.526190774       2.69378538608
210.026253282       2.76895045252
210.526315789       2.84730268245
211.026378297       2.9290218361
211.526440805       3.01430040688
212.026503313       3.10334469056
212.526565821       3.19637595642
213.026628329       3.29363173123
213.526690836       3.39536720755
214.026753344       3.50185678905
214.526815852       3.61339578707
215.02687836       3.7303022835
215.526940868       3.85291917685
216.027003375       3.98161642947
216.527065883       4.11679353543
217.027128391       4.2588822296
217.527190899       4.40834945982
218.027253407       4.56570064465
218.527315914       4.73148323932
219.027378422       4.90629063226
219.52744093       5.09076639269
220.027503438       5.28560888645
220.527565946       5.49157627208
221.027628454       5.70949187999
221.527690961       5.94024996508
222.027753469       6.1848218044
222.527815977       6.44426208483
223.027878485       6.71971548941
223.527940993       7.01242334057
224.0280035       7.32373009103
224.528066008       7.65508936286
225.028128516       8.00806911694
225.528191024       8.38435538147
226.028253532       8.78575377269
226.52831604       9.21418779695
227.028378547       9.67169262612
227.528441055       10.1604026892
228.028503563       10.6825310333
228.528566071       11.240338004
229.028628579       11.8360864378
229.528691086       12.4719803445
230.028753594       13.1500841481
230.528816102       13.8722201821
231.02887861       14.6398436238
231.528941118       15.4538967914
232.029003625       16.3146491041
232.529066133       17.221535287
233.029128641       18.1730124493
233.529191149       19.1664656033
234.029253657       20.198199022
234.529316165       21.2635542037
235.029378672       22.3571897672
235.52944118       23.4735401412
236.029503688       24.6074366735
236.529566196       25.7548300641
237.029628704       26.9135067782
237.529691211       28.0836595203
238.029753719       29.2681680592
238.529816227       30.4724790643
239.029878735       31.7040362725
239.529941243       32.9712869663
240.03000375       34.2823547308
240.530066258       35.6435055338
241.030128766       37.0575417138
241.530191274       38.5222470592
242.030253782       40.0289928502
242.53031629       41.5616142413
243.030378797       43.0956843833
243.530441305       44.5983438458
244.030503813       46.0288671474
244.530566321       47.3401402971
245.030628829       48.4811560911
245.530691336       49.400491264
246.030753844       50.0505202181
246.530816352       50.3918878929
247.03087886       50.3975847429
247.530941368       50.0559221963
248.031003875       49.3718474734
248.531066383       48.3663456979
249.031128891       47.0740670855
249.531191399       45.5396632436
250.031253907       43.8135144182
250.531316415       41.9475381262
251.031378922       39.9916203726
251.53144143       37.9909800117
252.031503938       35.9845458737
252.531566446       34.0042507392
253.031628954       32.0750468062
253.531691461       30.2154168285
254.031753969       28.4381724679
254.531816477       26.7513735277
255.031878985       25.1592505376
255.531941493       23.6630575681
256.032004001       22.2618171594
256.532066508       20.9529439684
257.032129016       19.7327494234
257.532191524       18.5968384524
258.032254032       17.5404132921
258.53231654       16.5585002704
259.032379047       15.6461145733
259.532441555       14.7983762605
260.032504063       14.0105887355
260.532566571       13.2782888422
261.032629079       12.5972759108
261.532691586       11.9636254901
262.032754094       11.3736921821
262.532816602       10.8241049377
263.03287911       10.3117573243
263.532941618       9.83379462447
264.033004126       9.38759912033
264.533066633       8.97077453204
265.033129141       8.58113029439
265.533191649       8.21666613724
266.033254157       7.87555727814
266.533316665       7.55614041864
267.033379172       7.25690065144
267.53344168       6.97645932481
