#  x                 y             frequency           rot. str.
0.0      0.596357543275      32.38      -18.15
0.500062507813      0.604741898528      40.18      41.97
1.00012501563      0.613183728676      68.05      4.49
1.50018752344      0.621671941703      94.91      -10.58
2.00025003125      0.630193819816      161.78      4.06
2.50031253907      0.638734826225      207.81      47.95
3.00037504688      0.647278389208      252.09      -16.06
3.50043755469      0.655805660741      309.32      17.26
4.00050006251      0.664295246658      315.34      2.69
4.50056257032      0.67272290494      323.84      -8.62
5.00062507813      0.681061208367      349.23      -14.96
5.50068758595      0.689279167288      391.52      8.92
6.00075009376      0.697341807851      423.16      4.55
6.50081260158      0.705209700476      432.39      -15.85
7.00087510939      0.712838432844      474.98      0.48
7.5009376172      0.720178021087      518.67      -20.77
8.00100012502      0.727172252255      529.05      -11.41
8.50106263283      0.733757950577      562.17      13.18
9.00112514064      0.739864159382      650.25      -12.41
9.50118764846      0.745411230076      659.82      1.20
10.0012501563      0.750309809082      727.02      7.31
10.5013126641      0.754459713403      744.65      -39.61
11.0013751719      0.757748685464      792.13      15.88
11.5014376797      0.760051018225      801.60      94.27
12.0015001875      0.761226042572      824.19      1.33
12.5015626953      0.761116470706      827.57      -67.96
13.0016252032      0.759546592187      852.21      -44.22
13.501687711      0.756320323817      867.94      2.89
14.0017502188      0.75121912123      941.19      0.49
14.5018127266      0.743999769791      965.81      1.66
15.0018752344      0.734392086176      976.50      -5.44
15.5019377422      0.722096581303      1011.51      21.80
16.00200025      0.706782161878      1035.38      0.02
16.5020627578      0.688083984339      1126.84      22.04
17.0021252657      0.665601624366      1145.26      -38.78
17.5021877735      0.638897791761      1173.41      23.74
18.0022502813      0.607497909485      1182.42      28.88
18.5023127891      0.570890993667      1193.60      -14.54
19.0023752969      0.528532426722      1201.00      -9.64
19.5024378047      0.479849418246      1229.23      -16.70
20.0025003125      0.424250209752      1236.26      2.91
20.5025628204      0.361138412338      1293.08      -1.05
21.0026253282      0.289934284124      1304.07      1.87
21.502687836      0.210105267537      1319.45      -44.50
22.0027503438      0.121208719994      1343.98      -45.06
22.5028128516      0.0229504766989      1360.30      23.77
23.0028753594      -0.0847363516556      1370.32      -36.49
23.5029378672      -0.201587194395      1427.12      -1.68
24.003000375      -0.326870702468      1473.78      4.16
24.5030628829      -0.459216343      1489.53      -3.95
25.0031253907      -0.596399504713      1551.86      -3.82
25.5031878985      -0.73508055416      1631.41      2.89
26.0032504063      -0.870498126553      1639.43      -52.54
26.5033129141      -0.996123623989      1658.72      3.87
27.0033754219      -1.10329425007      1833.51      58.93
27.5034379297      -1.18085640645      2990.22      31.82
28.0035004376      -1.21486948283      3026.01      -0.46
28.5035629454      -1.18843989706      3077.86      -4.00
29.0036254532      -1.08177217236      3157.23      -1.12
29.503687961      -0.87253064562      3161.19      2.38
30.0037504688      -0.536593054227      3179.10      -1.83
30.5038129766      -0.0492377725545      3197.75      1.33
31.0038754844      0.613262241277      3494.07      8.80
31.5039379922      1.47175466153      3580.72      -7.24
32.0040005001      2.54223479431      3721.75      52.41
32.5040630079      3.83404024493      3797.52      -6.19
33.0041255157       5.34846114515
33.5041880235       7.07793603279
34.0042505313       9.00587611091
34.5043130391       11.1070279784
35.0043755469       13.348196671
35.5044380548       15.6891394294
36.0045005626       18.0835076005
36.5045630704       20.4798314102
37.0046255782       22.8226647117
37.504688086       25.0540868025
38.0047505938       27.1157589565
38.5048131016       28.9516369595
39.0048756095       30.5112578145
39.5049381173       31.7532918976
40.0050006251       32.6488530852
40.5050631329       33.1839698268
41.0051256407       33.3606961424
41.5051881485       33.1965819195
42.0052506563       32.7225583229
42.5053131641       31.979616552
43.005375672       31.0148641685
43.5054381798       29.8775825337
44.0055006876       28.6157977505
44.5055631954       27.2736791211
45.0056257032       25.8898678822
45.505688211       24.4966703551
46.0057507188       23.1199480239
46.5058132267       21.7794998846
47.0058757345       20.4897421223
47.5059382423       19.260525761
48.0060007501       18.0979770346
48.5060632579       17.0052867271
49.0061257657       15.9834082166
49.5061882735       15.031648095
50.0062507813       14.1481489005
50.5063132892       13.330272532
51.006375797       12.5748972402
51.5064383048       11.878642359
52.0065008126       11.2380344235
52.5065633204       10.6496268683
53.0066258282       10.1100836891
53.506688336       9.61623559509
54.0067508439       9.16511546535
54.5068133517       8.75397841979
55.0068758595       8.3803105443
55.5069383673       8.04182925376
56.0070008751       7.73647740935
56.5070633829       7.46241258974
57.0071258907       7.21799231729
57.5071883985       7.0017555292
58.0072509064       6.81240013611
58.5073134142       6.64875611183
59.007375922       6.50975320618
59.5074384298       6.39438208141
60.0075009376       6.30164748058
60.5075634454       6.23051201257
61.0076259532       6.17982939238
61.5076884611       6.1482666619
62.0077509689       6.13421622736
62.5078134767       6.13570069032
63.0078759845       6.15027656878
63.5079384923       6.17494708182
64.0080010001       6.20609883778
64.5080635079       6.23948161199
65.0081260158       6.27025284694
65.5081885236       6.2931069128
66.0082510314       6.30250136345
66.5083135392       6.29297727678
67.008376047       6.25954952027
67.5084385548       6.19811998395
68.0085010626       6.10584987523
68.5085635704       5.9814238752
69.0086260783       5.8251536994
69.5086885861       5.63889921243
70.0087510939       5.42582282827
70.5088136017       5.19002545288
71.0088761095       4.93612995167
71.5089386173       4.66887766699
72.0090011251       4.39278832962
72.509063633       4.11191131501
73.0091261408       3.82967427986
73.5091886486       3.54881888558
74.0092511564       3.27140432273
74.5093136642       2.99885686209
75.009376172       2.73204559166
75.5094386798       2.47136865857
76.0095011876       2.21683903174
76.5095636955       1.96816302041
77.0096262033       1.72480808207
77.5096887111       1.48605876756
78.0097512189       1.25106111387
78.5098137267       1.018856612
79.0098762345       0.788407249597
79.5099387423       0.558613223912
80.0100012502       0.328324864417
80.510063758       0.096350182635
81.0101262658       -0.138540665115
81.5101887736       -0.377612822694
82.0102512814       -0.622164967425
82.5103137892       -0.873527212428
83.010376297       -1.13305749043
83.5104388049       -1.40213508846
84.0105013127       -1.68214978114
84.5105638205       -1.9744847096
85.0106263283       -2.28049077954
85.5106888361       -2.60144992615
86.0107513439       -2.93852415641
86.5108138517       -3.29268690978
87.0108763595       -3.66463310847
87.5109388674       -4.0546645047
88.0110013752       -4.46254787746
88.511063883       -4.88734568637
89.0111263908       -5.32722243723
89.5111888986       -5.77923572231
90.0112514064       -6.23912894567
90.5113139142       -6.70115289345
91.0113764221       -7.15795437753
91.5114389299       -7.60057958819
92.0115014377       -8.0186433766
92.5115639455       -8.40070820291
93.0116264533       -8.73489322016
93.5116889611       -9.00969352776
94.0117514689       -9.21493705651
94.5118139767       -9.34275479958
95.0118764846       -9.38840768193
95.5119389924       -9.35081730333
96.0120015002       -9.23269453395
96.512064008       -9.04023945958
97.0121265158       -8.78247421604
97.5121890236       -8.47033869986
98.0122515314       -8.11570867235
98.5123140393       -7.73048332585
99.0123765471       -7.32584674173
99.5124390549       -6.91175355578
100.012501563       -6.49664040166
100.512564071       -6.08733108184
101.012626578       -5.68908700859
101.512689086       -5.30575213448
102.012751594       -4.93994814293
102.512814102       -4.59328616789
103.01287661       -4.26657222842
103.512939117       -3.95999293383
104.013001625       -3.6732750983
104.513064133       -3.40581771888
105.013126641       -3.15679770464
105.513189149       -2.92525228617
106.013251656       -2.71014163921
106.513314164       -2.51039528361
107.013376672       -2.32494553074
107.51343918       -2.15275081989
108.013501688       -1.99281131433
108.513564196       -1.84417867902
109.013626703       -1.70596156378
109.513689211       -1.57732797858
110.013751719       -1.45750547032
110.513814227       -1.34577978877
111.013876735       -1.24149255488
111.513939242       -1.14403830879
112.01400175       -1.05286121177
112.514064258       -0.967451597318
113.014126766       -0.887342507908
113.514189274       -0.812106310153
114.014251781       -0.741351448852
114.514314289       -0.674719377088
115.014376797       -0.611881682704
115.514439305       -0.552537419628
116.014501813       -0.496410644301
116.514564321       -0.443248151938
117.014626828       -0.392817403777
117.514689336       -0.344904634311
118.014751844       -0.299313126334
118.514814352       -0.255861641227
119.01487686       -0.214382991871
119.514939367       -0.174722746026
120.015001875       -0.136738048499
120.515064383       -0.100296551159
121.015126891       -0.0652754405913
121.515189399       -0.0315605539452
122.015251906       0.000954425699253
122.515314414       0.0323687024026
123.015376922       0.0627750361287
123.51543943       0.0922603538103
124.015501938       0.120906308734
124.515564446       0.148789793714
125.015626953       0.17598341303
125.515689461       0.202555917653
126.015751969       0.228572607892
126.515814477       0.254095707233
127.015876985       0.279184710808
127.515939492       0.3038967117
128.016002       0.328286707988
128.516064508       0.35240789328
129.016127016       0.376311933268
129.516189524       0.400049230708
130.016252032       0.423669181099
130.516314539       0.44722042125
131.016377047       0.470751072831
131.516439555       0.494308982981
132.016502063       0.517941964015
132.516564571       0.54169803425
133.016627078       0.565625662038
133.516689586       0.589774015087
134.016752094       0.614193217248
134.516814602       0.638934615047
135.01687711       0.664051056309
135.516939617       0.689597183416
136.017002125       0.715629743865
136.517064633       0.742207920973
137.017127141       0.769393687833
137.517189649       0.797252187785
138.017252157       0.825852144978
138.517314664       0.855266308828
139.017377172       0.885571936463
139.51743968       0.916851317519
140.017502188       0.949192345894
140.517564696       0.982689143319
141.017627203       1.01744273971
141.517689711       1.05356181536
142.017752219       1.0911635099
142.517814727       1.13037430259
143.017877235       1.17133096779
143.517939742       1.21418160833
144.01800225       1.25908676766
144.518064758       1.30622061861
145.018127266       1.35577222299
145.518189774       1.40794684998
146.018252282       1.46296733353
146.518314789       1.52107543759
147.018377297       1.58253318281
147.518439805       1.64762406787
148.018502313       1.71665409073
148.518564821       1.78995243898
149.018627328       1.86787167039
149.518689836       1.95078714295
150.018752344       2.03909537464
150.518814852       2.1332109137
151.01887736       2.23356117851
151.518939867       2.34057858011
152.019002375       2.45468907411
152.519064883       2.5762961088
153.019127391       2.70575876251
153.519189899       2.84336272964
154.019252407       2.98928277764
154.519314914       3.14353544661
155.019377422       3.30592122357
155.51943993       3.47595636038
156.019502438       3.65279610441
156.519564946       3.83515354465
157.019627453       4.02122160744
157.519689961       4.2086097939
158.019752469       4.39431144697
158.519814977       4.57472051175
159.019877485       4.74571716142
159.519939992       4.9028372625
160.0200025       5.04152987027
160.520065008       5.15748981789
161.020127516       5.24703175582
161.520190024       5.30745344356
162.020252532       5.33732697215
162.520315039       5.33666265532
163.020377547       5.30691240929
163.520440055       5.2508119471
164.020502563       5.17209383722
164.520565071       5.07512611112
165.020627578       4.96453781618
165.520690086       4.84488429426
166.020752594       4.72038664262
166.520815102       4.59475906617
167.02087761       4.47112049051
167.520940118       4.35197575903
168.021002625       4.23924711226
168.521065133       4.13433690658
169.021127641       4.03820563348
169.521190149       3.9514534826
170.021252657       3.87439776921
170.521315164       3.80714191268
171.021377672       3.74963412087
171.52144018       3.70171556591
172.021502688       3.66315879592
172.521565196       3.63369760373
173.021627703       3.61304973266
173.521690211       3.60093376806
174.021752719       3.59708143302
174.521815227       3.60124633367
175.021877735       3.61321002047
175.521940243       3.63278606503
176.02200275       3.65982270625
176.522065258       3.69420449721
177.022127766       3.73585328542
177.522190274       3.78472877971
178.022252782       3.840828896
178.522315289       3.90419002699
179.022377797       3.97488734518
179.522440305       4.05303522255
180.022502813       4.13878783072
180.522565321       4.23233997229
181.022627828       4.33392818444
181.522690336       4.44383214999
182.022752844       4.56237644804
182.522815352       4.68993267445
183.02287786       4.8269219629
183.522940368       4.97381793827
184.023002875       5.13115013636
184.523065383       5.29950792659
185.023127891       5.47954497766
185.523190399       5.67198430943
186.023252907       5.87762397755
186.523315414       6.0973434407
187.023377922       6.33211066215
187.52344043       6.58298999886
188.023502938       6.85115093031
188.523565446       7.1378776757
189.023627953       7.44457974069
189.523690461       7.77280342131
190.023752969       8.12424427185
190.523815477       8.50076051102
191.023877985       8.90438729427
191.523940493       9.33735171283
192.024003       9.80208828623
192.524065508       10.3012545855
193.024128016       10.8377464467
193.524190524       11.4147119941
194.024253032       12.035563374
194.524315539       12.7039846709
195.024378047       13.4239339249
195.524440555       14.199636444
196.024503063       15.0355656822
196.524565571       15.9364067951
197.024628079       16.9069965563
197.524690586       17.9522316112
198.024753094       19.0769350875
198.524815602       20.2856694616
199.02487811       21.5824815193
199.524940618       22.9705636282
200.025003125       24.4518150342
200.525065633       26.0262885116
201.025128141       27.6915129212
201.525190649       29.4416929689
202.025253157       31.2668059264
202.525315664       33.1516433054
203.025378172       35.0748843259
203.52544068       37.0083356404
204.025503188       38.9165215054
204.525565696       40.7568471109
205.025628204       42.4805647414
205.525690711       44.034723767
206.025753219       45.365161975
206.525815727       46.4203966456
207.025878235       47.1560299618
207.525940743       47.5390610205
208.02600325       47.5513816731
208.526065758       47.1917954704
209.026128266       46.4761515331
209.526190774       45.4355656295
210.026253282       44.1130901288
210.526315789       42.5594697853
211.026378297       40.8287091264
211.526440805       38.9740830547
212.026503313       37.0450094192
212.526565821       35.0849568368
213.026628329       33.1303532158
213.526690836       31.2103261146
214.026753344       29.3470480862
214.526815852       27.5564609702
215.02687836       25.8491886529
215.526940868       24.2314969693
216.027003375       22.7062078494
216.527065883       21.273515049
217.027128391       19.9316784715
217.527190899       18.6775937757
218.027253407       17.5072456253
218.527315914       16.4160587873
219.027378422       15.3991632959
219.52744093       14.4515896174
220.027503438       13.5684082305
220.527565946       12.7448260117
221.027628454       11.9762496843
221.527690961       11.2583246055
222.027753469       10.5869554167
222.527815977       9.95831362258
223.027878485       9.36883596374
223.527940993       8.8152164964
224.0280035       8.29439454407
224.528066008       7.80354010722
225.028128516       7.34003787506
225.528191024       6.90147064944
226.028253532       6.48560274004
226.52831604       6.09036370449
227.028378547       5.71383267019
227.528441055       5.35422337526
228.028503563       5.0098699947
228.528566071       4.67921376703
229.028628579       4.36079040154
229.528691086       4.05321822231
230.028753594       3.75518698965
230.528816102       3.46544732973
231.02887861       3.18280069835
231.528941118       2.90608980238
232.029003625       2.6341894036
232.529066133       2.36599743169
233.029128641       2.10042633825
233.529191149       1.83639463014
234.029253657       1.57281852951
234.529316165       1.30860372038
235.029378672       1.04263715763
235.52944118       0.773778936372
236.029503688       0.500854249181
236.529566196       0.222645497775
237.029628704       -0.0621153209644
237.529691211       -0.354753764308
238.029753719       -0.656659343896
238.529816227       -0.969290768186
239.029878735       -1.29417945541
239.529941243       -1.63293053345
240.03000375       -1.98722027065
240.530066258       -2.35878853673
241.030128766       -2.74942446338
241.530191274       -3.1609429531
242.030253782       -3.59514907166
242.53031629       -4.05378667266
243.030378797       -4.53846688933
243.530441305       -5.05057148258
244.030503813       -5.59112562602
244.530566321       -6.16063480806
245.030628829       -6.75888154766
245.530691336       -7.38468011452
246.030753844       -8.03559211562
246.530816352       -8.70761339962
247.03087886       -9.39485379353
247.530941368       -10.0892456797
248.031003875       -10.7803340863
248.531066383       -11.4552166296
249.031128891       -12.0987107386
249.531191399       -12.6938205138
250.031253907       -13.2225485041
250.531316415       -13.6670443851
251.031378922       -14.01100706
251.53144143       -14.2411749373
252.031503938       -14.348677323
252.531566446       -14.330006041
253.031628954       -14.1874169127
253.531691461       -13.9286786702
254.031753969       -13.5662211505
254.531816477       -13.1158522339
255.031878985       -12.5952785357
255.531941493       -12.0226653511
256.032004001       -11.415418443
256.532066508       -10.7892905536
257.032129016       -10.1578367117
257.532191524       -9.5321831487
258.032254032       -8.9210415915
258.53231654       -8.33089111448
259.032379047       -7.76625624553
259.532441555       -7.23002473563
260.032504063       -6.7237652021
260.532566571       -6.24802002936
261.032629079       -5.80256081452
261.532691586       -5.38660201146
262.032754094       -4.99897371693
262.532816602       -4.6382574798
263.03287911       -4.30289032094
263.532941618       -3.99124242391
264.033004126       -3.70167363857
264.533066633       -3.43257333176
265.033129141       -3.1823874115
265.533191649       -2.94963565307
266.033254157       -2.73292182392
266.533316665       -2.53093856181
267.033379172       -2.34246851156
267.53344168       -2.16638286343
268.033504188       -2.00163814916
