#  x                 y             frequency           rot. str.
0.0      0.860158539101      42.87      42.59
0.500062507813      0.885355189549      48.51      -2.52
1.00012501563      0.911526852789      82.94      -24.91
1.50018752344      0.938720837587      89.52      -42.80
2.00025003125      0.96698723384      174.31      -2.62
2.50031253907      0.996379105253      211.80      18.97
3.00037504688      1.02695269738      308.73      75.89
3.50043755469      1.05876766241      331.36      -44.54
4.00050006251      1.09188730225      341.12      38.09
4.50056257032      1.12637883154      348.19      2.85
5.00062507813      1.16231366244      378.44      37.27
5.50068758595      1.19976771332      424.75      -7.87
6.00075009376      1.2388217434      433.98      -11.20
6.50081260158      1.27956171604      434.60      -3.59
7.00087510939      1.32207919325      512.81      45.05
7.5009376172      1.3664717645      531.65      -12.42
8.00100012502      1.4128435132      557.56      -75.68
8.50106263283      1.4613055245      603.49      -8.70
9.00112514064      1.5119764385      660.05      -1.78
9.50118764846      1.56498305348      730.20      -10.06
10.0012501563      1.6204609841      735.59      24.00
10.5013126641      1.67855538024      776.63      -12.06
11.0013751719      1.73942171256      828.63      1.55
11.5014376797      1.80322663183      830.19      61.05
12.0015001875      1.87014890949      846.89      -58.28
12.5015626953      1.94038046814      860.80      -71.41
13.0016252032      2.01412751119      870.08      -78.07
13.501687711      2.09161176241      900.19      92.49
14.0017502188      2.17307182688      929.60      12.06
14.5018127266      2.2587646864      952.61      0.52
15.0018752344      2.34896734379      974.26      -3.10
15.5019377422      2.44397863217      1023.17      48.12
16.00200025      2.54412120689      1036.47      2.23
16.5020627578      2.64974374004      1086.71      -14.52
17.0021252657      2.76122333928      1132.53      -18.57
17.5021877735      2.87896821534      1168.23      -42.99
18.0022502813      3.00342062478      1191.26      -17.45
18.5023127891      3.13506011757      1201.86      60.24
19.0023752969      3.27440712167      1208.08      48.35
19.5024378047      3.4220269      1222.61      -10.69
20.0025003125      3.57853391808      1240.91      -34.07
20.5025628204      3.74459666369      1284.67      -40.60
21.0026253282      3.9209429629      1290.67      7.08
21.502687836      4.10836583905      1350.21      1.21
22.0027503438      4.30772996343      1367.46      -27.23
22.5028128516      4.51997874702      1369.42      19.09
23.0028753594      4.74614212193      1397.62      -2.76
23.5029378672      4.98734505795      1418.10      58.78
24.003000375      5.24481685336      1475.61      4.92
24.5030628829      5.51990122755      1486.64      -6.71
25.0031253907      5.81406722522      1551.10      22.24
25.5031878985      6.12892091481      1632.98      1.71
26.0032504063      6.46621782412      1654.01      16.88
26.5033129141      6.8278759995      1659.04      -53.63
27.0033754219      7.21598949555      1828.35      -175.13
27.5034379297      7.63284199259      3040.24      13.53
28.0035004376      8.08092008893      3052.47      -8.54
28.5035629454      8.56292561185      3100.65      -1.31
29.0036254532      9.08178601941      3155.05      -2.98
29.503687961      9.6406616042      3157.51      -4.56
30.0037504688      10.2429477363      3193.15      1.20
30.5038129766      10.8922697678      3195.97      -2.16
31.0038754844      11.592467434      3414.12      -86.75
31.5039379922      12.3475645927      3482.73      19.87
32.0040005001      13.1617189183      3580.73      -26.45
32.5040630079      14.0391446965      3798.14      7.83
33.0041255157       14.9840001618
33.5041880235       16.0002289617
34.0042505313       17.0913434836
34.5043130391       18.2601362609
35.0043755469       19.5083050324
35.5044380548       20.8359781127
36.0045005626       22.2411307819
36.5045630704       23.7188920658
37.0046255782       25.2607564983
37.504688086       26.8537391067
38.0047505938       28.4795449603
38.5048131016       30.1138660246
39.0048756095       31.7259626714
39.5049381173       33.2787241998
40.0050006251       34.7294149463
40.5050631329       36.0312787511
41.0051256407       37.1360761826
41.5051881485       37.9974617114
42.0052506563       38.5748942262
42.5053131641       38.8375679535
43.005375672       38.7677270291
43.5054381798       38.36275244
44.0055006876       37.6356067697
44.5055631954       36.6135454564
45.0056257032       35.3353534121
45.505688211       33.8476314384
46.0057507188       32.2007651567
46.5058132267       30.4451536018
47.0058757345       28.6281062514
47.5059382423       26.7916111064
48.0060007501       24.9709961474
48.5060632579       23.1943849031
49.0061257657       21.4827863135
49.5061882735       19.8506437561
50.0062507813       18.3066784266
50.5063132892       16.8548838974
51.006375797       15.4955546009
51.5064383048       14.2262589403
52.0065008126       13.0426965936
52.5065633204       11.9394073771
53.0066258282       10.9103230952
53.506688336       9.94917184079
54.0067508439       9.04975531564
54.5068133517       8.20612447798
55.0068758595       7.41267877446
55.5069383673       6.66421122958
56.0070008751       5.95591738837
56.5070633829       5.28338168164
57.0071258907       4.6425508619
57.5071883985       4.02970100777
58.0072509064       3.44140223876
58.5073134142       2.87448361576
59.007375922       2.32599958178
59.5074384298       1.79319857534
60.0075009376       1.27349400709
60.5075634454       0.764437533427
61.0076259532       0.26369442382
61.5076884611       -0.230979245606
62.0077509689       -0.721757860582
62.5078134767       -1.21076628445
63.0078759845       -1.70009889061
63.5079384923       -2.19183785943
64.0080010001       -2.68807096294
64.5080635079       -3.19090903485
65.0081260158       -3.70250329631
65.5081885236       -4.22506267786
66.0082510314       -4.76087124351
66.5083135392       -5.31230578132
67.008376047       -5.88185357226
67.5084385548       -6.47213028068
68.0085010626       -7.08589781999
68.5085635704       -7.72608192805
69.0086260783       -8.39578902853
69.5086885861       -9.09832174531
70.0087510939       -9.83719216261
70.5088136017       -10.6161315655
71.0088761095       -11.4390949354
71.5089386173       -12.3102578912
72.0090011251       -13.2340030403
72.509063633       -14.2148918204
73.0091261408       -15.2576168791
73.5091886486       -16.3669288777
74.0092511564       -17.5475304082
74.5093136642       -18.8039286381
75.009376172       -20.1402376296
75.5094386798       -21.5599214799
76.0095011876       -23.0654711694
76.5095636955       -24.6580121901
77.0096262033       -26.3368477594
77.5096887111       -28.0989547836
78.0097512189       -29.9384673937
78.5098137267       -31.8462053472
79.0098762345       -33.8093292404
79.5099387423       -35.8112254662
80.0100012502       -37.831731669
80.510063758       -39.8477959348
81.0101262658       -41.8346090609
81.5101887736       -43.7671554355
82.0102512814       -45.6220058301
82.5103137892       -47.3790552596
83.010376297       -49.0228356767
83.5104388049       -50.543049479
84.0105013127       -51.9340948882
84.5105638205       -53.1935684799
85.0106263283       -54.3199776119
85.5106888361       -55.3101058756
86.0107513439       -56.1565914089
86.5108138517       -56.8462757569
87.0108763595       -57.3597653059
87.5109388674       -57.6724414871
88.0110013752       -57.756890622
88.511063883       -57.5864373543
89.0111263908       -57.1392084992
89.5111888986       -56.4019917409
90.0112514064       -55.3731471841
90.5113139142       -54.0640059927
91.0113764221       -52.4985153988
91.5114389299       -50.7112703623
92.0115014377       -48.7443923128
92.5115639455       -46.6438849077
93.0116264533       -44.4560887353
93.5116889611       -42.2247090935
94.0117514689       -39.9886772668
94.5118139767       -37.7808992984
95.0118764846       -35.6277943355
95.5119389924       -33.5494423971
96.0120015002       -31.5601399955
96.512064008       -29.6691814047
97.0121265158       -27.8817228152
97.5121890236       -26.1996304954
98.0122515314       -24.6222531087
98.5123140393       -23.1470885852
99.0123765471       -21.7703369297
99.5124390549       -20.4873434159
100.012501563       -19.2929436768
100.512564071       -18.1817251596
101.012626578       -17.1482197967
101.512689086       -16.1870416818
102.012751594       -15.2929818014
102.512814102       -14.4610699193
103.01287661       -13.6866118255
103.512939117       -12.9652084707
104.013001625       -12.2927620672
104.513064133       -11.6654730511
105.013126641       -11.0798308472
105.513189149       -10.5326006291
106.013251656       -10.0208076793
106.513314164       -9.54172051378
107.013376672       -9.09283359263
107.51343918       -8.67185018671
108.013501688       -8.27666578329
108.513564196       -7.90535227414
109.013626703       -7.55614307085
109.513689211       -7.22741922045
110.013751719       -6.91769654427
110.513814227       -6.62561378885
111.013876735       -6.34992175478
111.513939242       -6.089473355
112.01400175       -5.84321454576
112.514064258       -5.61017606938
113.014126766       -5.38946594684
113.514189274       -5.18026265912
114.014251781       -4.98180895858
114.514314289       -4.79340625461
115.014376797       -4.61440952161
115.514439305       -4.44422268069
116.014501813       -4.28229441088
116.514564321       -4.12811434884
117.014626828       -3.98120964004
117.514689336       -3.84114180744
118.014751844       -3.70750390722
118.514814352       -3.57991794373
119.01487686       -3.45803251858
119.514939367       -3.34152069143
120.015001875       -3.2300780319
120.515064383       -3.12342084454
121.015126891       -3.02128455009
121.515189399       -2.92342220831
122.015251906       -2.82960316896
122.515314414       -2.73961183889
123.015376922       -2.65324655445
123.51543943       -2.57031854931
124.015501938       -2.49065100909
124.515564446       -2.41407820475
125.015626953       -2.34044469761
125.515689461       -2.2696046096
126.015751969       -2.20142095294
126.515814477       -2.13576501386
127.015876985       -2.07251578586
127.515939492       -2.01155944801
128.016002       -1.95278888452
128.516064508       -1.89610324207
129.016127016       -1.84140752172
129.516189524       -1.78861220254
130.016252032       -1.73763289429
130.516314539       -1.68839001695
131.016377047       -1.64080850481
131.516439555       -1.59481753323
132.016502063       -1.55035026643
132.516564571       -1.5073436245
133.016627078       -1.46573806848
133.516689586       -1.42547740188
134.016752094       -1.3865085878
134.516814602       -1.34878158034
135.01687711       -1.31224916943
135.516939617       -1.27686683829
136.017002125       -1.24259263262
136.517064633       -1.20938704096
137.017127141       -1.1772128855
137.517189649       -1.14603522295
138.017252157       -1.11582125481
138.517314664       -1.08654024689
139.017377172       -1.05816345748
139.51743968       -1.03066407412
140.017502188       -1.00401715865
140.517564696       -0.978199600393
141.017627203       -0.953190077431
141.517689711       -0.928969025867
142.017752219       -0.905518617182
142.517814727       -0.88282274373
143.017877235       -0.860867012551
143.517939742       -0.839638747718
144.01800225       -0.81912700153
144.518064758       -0.799322574926
145.018127266       -0.780218047576
145.518189774       -0.761807818198
146.018252282       -0.744088155759
146.518314789       -0.727057262288
147.018377297       -0.710715348187
147.518439805       -0.695064721003
148.018502313       -0.68010988879
148.518564821       -0.665857679322
149.018627328       -0.652317376561
149.518689836       -0.639500875982
150.018752344       -0.627422860491
150.518814852       -0.616100998899
151.01887736       -0.605556169087
151.518939867       -0.595812708194
152.019002375       -0.586898692372
152.519064883       -0.578846248804
153.019127391       -0.571691902885
153.519189899       -0.565476963524
154.019252407       -0.560247949637
154.519314914       -0.556057060777
155.019377422       -0.552962694699
155.51943993       -0.551030014184
156.019502438       -0.55033156473
156.519564946       -0.550947943547
157.019627453       -0.552968518525
157.519689961       -0.55649219328
158.019752469       -0.561628210733
158.519814977       -0.568496982524
159.019877485       -0.5772309245
159.519939992       -0.587975268828
160.0200025       -0.60088881021
160.520065008       -0.616144526186
161.020127516       -0.633929988311
161.520190024       -0.654447450627
162.020252532       -0.677913462407
162.520315039       -0.704557801845
163.020377547       -0.73462146403
163.520440055       -0.768353358663
164.020502563       -0.806005279902
164.520565071       -0.847824603676
165.020627578       -0.894044052219
165.520690086       -0.944867752636
166.020752594       -1.0004527276
166.520815102       -1.06088492773
167.02087761       -1.12614900255
167.520940118       -1.19609129005
168.021002625       -1.27037608872
168.521065133       -1.34843628115
169.021127641       -1.42942091554
169.521190149       -1.51214446989
170.021252657       -1.59504512245
170.521315164       -1.67616207064
171.021377672       -1.7531440548
171.52144018       -1.82330164329
172.021502688       -1.88371320628
172.521565196       -1.93138779476
173.021627703       -1.96347729217
173.521690211       -1.97751689191
174.021752719       -1.97166077721
174.521815227       -1.94487352606
175.021877735       -1.89704106478
175.521940243       -1.82897871373
176.02200275       -1.74233462316
176.522065258       -1.63940819921
177.022127766       -1.52291823512
177.522190274       -1.39576040681
178.022252782       -1.2607887183
178.522315289       -1.12064388727
179.022377797       -0.977638244375
179.522440305       -0.833695335877
180.022502813       -0.690335043152
180.522565321       -0.548691832216
181.022627828       -0.409553768943
181.522690336       -0.273411867461
182.022752844       -0.14051202218
182.522815352       -0.0109044220166
183.02287786       0.115512451864
183.522940368       0.238954518414
184.023002875       0.3597216733
184.523065383       0.478173804374
185.023127891       0.594712479661
185.523190399       0.709767430942
186.023252907       0.82378697197
186.523315414       0.937231573736
187.023377922       1.0505699312
187.52344043       1.16427697335
188.023502938       1.27883337844
188.523565446       1.39472625318
189.023627953       1.51245071599
189.523690461       1.63251219145
190.023752969       1.75542927659
190.523815477       1.88173708141
191.023877985       2.01199097898
191.523940493       2.14677072448
192.024003       2.28668492065
192.524065508       2.43237581914
193.024128016       2.58452445416
193.524190524       2.7438561071
194.024253032       2.91114609713
194.524315539       3.08722588438
195.024378047       3.27298945561
195.524440555       3.46939993794
196.024503063       3.67749634948
196.524565571       3.89840034516
197.024628079       4.13332274556
197.524690586       4.38356954142
198.024753094       4.65054693894
198.524815602       4.93576484154
199.02487811       5.24083794221
199.524940618       5.56748331272
200.025003125       5.91751300903
200.525065633       6.29281975059
201.025128141       6.69535316422
201.525190649       7.12708340542
202.025253157       7.58994819325
202.525315664       8.08577845601
203.025378172       8.61619697036
203.52544068       9.1824837424
204.025503188       9.78540169065
204.525565696       10.4249768555
205.025628204       11.1002294627
205.525690711       11.8088564724
206.025753219       12.5468736251
206.525815727       13.3082362519
207.025878235       14.0844735705
207.525940743       14.8643900816
208.02600325       15.633907326
208.526065758       16.3761343291
209.026128266       17.071757454
209.526190774       17.6998205642
210.026253282       18.238916886
210.526315789       18.6687346396
211.026378297       18.9718019163
211.526440805       19.1351888588
212.026503313       19.151880931
212.526565821       19.0215632376
213.026628329       18.7506571887
213.526690836       18.351601925
214.026753344       17.8415264881
214.526815852       17.2405662698
215.02687836       16.5701107796
215.526940868       15.8512312049
216.027003375       15.1034514107
216.527065883       14.3439289763
217.027128391       13.5870311651
217.527190899       12.8442382408
218.027253407       12.1242841852
218.527315914       11.4334455801
219.027378422       10.7759036723
219.52744093       10.154124133
220.027503438       9.56921813157
220.527565946       9.02126418188
221.027628454       8.50958186719
221.527690961       8.03295626248
222.027753469       7.58981643047
222.527815977       7.17837364162
223.027878485       6.79672574122
223.527940993       6.44293395804
224.0280035       6.11507784456
224.528066008       5.81129323219
225.028128516       5.52979724502
225.528191024       5.26890363015
226.028253532       5.02703097549
226.52831604       4.8027058084
227.028378547       4.59456209787
227.528441055       4.40133830747
228.028503563       4.2218728523
228.528566071       4.05509858551
229.028628579       3.90003676665
229.528691086       3.7557908326
230.028753594       3.62154019402
230.528816102       3.4965342071
231.02887861       3.38008641745
231.528941118       3.27156913416
232.029003625       3.17040836426
232.529066133       3.07607911872
233.029128641       2.98810108739
233.529191149       2.90603467173
234.029253657       2.82947735806
234.529316165       2.75806041126
235.029378672       2.69144586666
235.52944118       2.62932379756
236.029503688       2.57140983619
236.529566196       2.51744292639
237.029628704       2.46718328758
237.529691211       2.42041057096
238.029753719       2.37692218996
238.529816227       2.33653180877
239.029878735       2.29906797369
239.529941243       2.26437287382
240.03000375       2.23230121853
240.530066258       2.20271922049
241.030128766       2.17550367398
241.530191274       2.15054111945
242.030253782       2.12772708593
242.53031629       2.10696540375
243.030378797       2.08816758114
243.530441305       2.07125223834
244.030503813       2.05614459406
244.530566321       2.04277599932
245.030628829       2.0310835143
245.530691336       2.0210095243
246.030753844       2.01250139128
246.530816352       2.00551113787
247.03087886       1.99999516094
247.530941368       1.99591397223
248.031003875       1.99323196383
248.531066383       1.99191719627
249.031128891       1.99194120773
249.531191399       1.99327884231
250.031253907       1.99590809635
250.531316415       1.99980998108
251.031378922       2.00496840082
251.53144143       2.01137004535
252.031503938       2.01900429588
252.531566446       2.02786314351
253.031628954       2.03794111972
253.531691461       2.04923523814
254.031753969       2.06174494713
254.531816477       2.07547209273
255.031878985       2.09042089157
255.531941493       2.10659791348
256.032004001       2.12401207356
256.532066508       2.14267463354
257.032129016       2.16259921231
257.532191524       2.18380180554
258.032254032       2.20630081453
258.53231654       2.23011708416
259.032379047       2.25527395025
259.532441555       2.28179729641
260.032504063       2.30971562065
260.532566571       2.33906011205
261.032629079       2.36986473791
261.532691586       2.4021663417
262.032754094       2.43600475246
262.532816602       2.47142290608
263.03287911       2.50846697926
263.532941618       2.54718653676
264.033004126       2.58763469285
264.533066633       2.62986828786
265.033129141       2.67394808081
265.533191649       2.71993895938
266.033254157       2.76791016834
266.533316665       2.81793555798
267.033379172       2.87009385388
267.53344168       2.92446895006
