#  x                 y             frequency           rot. str.
0.0      0.393526907716      29.72      8.72
0.500062507813      0.410237322152      41.36      2.38
1.00012501563      0.427824262447      60.95      -11.62
1.50018752344      0.446344649654      80.87      -8.36
2.00025003125      0.465859836285      147.74      -1.00
2.50031253907      0.486436005801      239.10      -1.17
3.00037504688      0.508144612328      247.83      -3.86
3.50043755469      0.531062864945      278.75      35.50
4.00050006251      0.555274261356      317.38      -62.29
4.50056257032      0.580869176237      331.92      -23.10
5.00062507813      0.60794551014      334.04      36.42
5.50068758595      0.636609405381      374.89      -0.50
6.00075009376      0.666976036001      421.61      -3.10
6.50081260158      0.699170479513      431.35      3.48
7.00087510939      0.733328678806      495.04      -1.99
7.5009376172      0.769598503257      540.91      7.82
8.00100012502      0.808140918685      557.43      -45.51
8.50106263283      0.849131276326      591.59      13.15
9.00112514064      0.892760731379      603.81      63.57
9.50118764846      0.939237801826      660.24      0.64
10.0012501563      0.98879007798      730.81      0.42
10.5013126641      1.04166609251      759.15      -21.92
11.0013751719      1.09813735915      790.84      -3.73
11.5014376797      1.15850058565      803.62      33.01
12.0015001875      1.22308006266      818.22      -25.46
12.5015626953      1.29223022381      847.07      -47.39
13.0016252032      1.3663383635      862.08      69.63
13.501687711      1.44582748628      870.16      13.17
14.0017502188      1.53115924354      927.50      -0.19
14.5018127266      1.62283688916      954.00      -9.03
15.0018752344      1.72140815167      968.17      15.61
15.5019377422      1.8274678757      1001.44      -30.63
16.00200025      1.94166022462      1036.13      0.59
16.5020627578      2.06468015619      1099.14      121.59
17.0021252657      2.19727377837      1120.23      -19.46
17.5021877735      2.34023705618      1146.89      -28.96
18.0022502813      2.49441216773      1173.62      -108.21
18.5023127891      2.66068059017      1191.42      2.54
19.0023752969      2.83995172988      1199.08      1.09
19.5024378047      3.03314559468      1232.58      1.14
20.0025003125      3.24116764402      1254.10      99.53
20.5025628204      3.46487356691      1287.78      -13.15
21.0026253282      3.70502136758      1327.03      4.73
21.502687836      3.96220786412      1343.46      21.43
22.0027503438      4.23678665193      1354.11      -1.91
22.5028128516      4.52876494976      1366.95      -11.66
23.0028753594      4.83767780889      1369.20      25.16
23.5029378672      5.16244028405      1400.85      -9.21
24.003000375      5.50118174362      1474.91      -10.33
24.5030628829      5.85107188745      1491.45      -2.93
25.0031253907      6.20815535399      1552.06      -3.33
25.5031878985      6.56722060036      1635.75      11.19
26.0032504063      6.92173767225      1659.40      27.18
26.5033129141      7.26390594083      1660.31      -17.76
27.0033754219      7.5848530256      1810.93      -56.56
27.5034379297      7.87501556978      3045.88      -7.84
28.0035004376      8.1247080965      3076.07      6.76
28.5035629454      8.32484835991      3094.07      -4.52
29.0036254532      8.46776292921      3150.27      2.53
29.503687961      8.54795798324      3168.86      2.59
30.0037504688      8.56272309372      3172.51      -1.80
30.5038129766      8.51245183743      3196.10      -1.88
31.0038754844      8.40061303789      3484.77      1.23
31.5039379922      8.23337714786      3563.58      2.91
32.0040005001      8.01897137616      3727.27      -1.80
32.5040630079      7.76688300456      3799.85      7.12
33.0041255157       7.48704156098
33.5041880235       7.1890895747
34.0042505313       6.88181127738
34.5043130391       6.57274450017
35.0043755469       6.26796528875
35.5044380548       5.97201314684
36.0045005626       5.68791728644
36.5045630704       5.41728737928
37.0046255782       5.16044162049
37.504688086       4.91655644408
38.0047505938       4.68383293385
38.5048131016       4.45968267812
39.0048756095       4.24093899556
39.5049381173       4.02409724609
40.0050006251       3.80558049201
40.5050631329       3.58201577362
41.0051256407       3.35049512198
41.5051881485       3.10878862299
42.0052506563       2.85547826654
42.5053131641       2.58999224028
43.005375672       2.31253724909
43.5054381798       2.02394575565
44.0055006876       1.72546950241
44.5055631954       1.4185562263
45.0056257032       1.10464275713
45.505688211       0.784987562493
46.0057507188       0.460553509604
46.5058132267       0.131940834784
47.0058757345       -0.200636919692
47.5059382423       -0.537344582864
48.0060007501       -0.878695449011
48.5060632579       -1.22550887066
49.0061257657       -1.57886185353
49.5061882735       -1.94003847309
50.0062507813       -2.31047855291
50.5063132892       -2.69172511462
51.006375797       -3.08536861573
51.5064383048       -3.49298486227
52.0065008126       -3.91606264937
52.5065633204       -4.35591662242
53.0066258282       -4.81358062368
53.506688336       -5.28967705531
54.0067508439       -5.78425883201
54.5068133517       -6.29662272543
55.0068758595       -6.82509682619
55.5069383673       -7.36681098725
56.0070008751       -7.91746779455
56.5070633829       -8.47114264767
57.0071258907       -9.0201537372
57.5071883985       -9.55505339739
58.0072509064       -10.0647970686
58.5073134142       -10.537139218
59.007375922       -10.9592817058
59.5074384298       -11.3187572556
60.0075009376       -11.6044736876
60.5075634454       -11.807786896
61.0076259532       -11.9234322209
61.5076884611       -11.9501441425
62.0077509689       -11.8908415745
62.5078134767       -11.7523410844
63.0078759845       -11.5446575224
63.5079384923       -11.2800296975
64.0080010001       -10.9718453608
64.5080635079       -10.6336298227
65.0081260158       -10.2782178266
65.5081885236       -9.91716913058
66.0082510314       -9.56043359752
66.5083135392       -9.21623295266
67.008376047       -8.89110670439
67.5084385548       -8.59006594908
68.0085010626       -8.31680525671
68.5085635704       -8.07393404146
69.0086260783       -7.86320072551
69.5086885861       -7.68569329927
70.0087510939       -7.54200764833
70.5088136017       -7.43238022329
71.0088761095       -7.35678467561
71.5089386173       -7.31499352335
72.0090011251       -7.30660628296
72.509063633       -7.33104527654
73.0091261408       -7.38751990133
73.5091886486       -7.47495989364
74.0092511564       -7.59191839861
74.5093136642       -7.73644686347
75.009376172       -7.90594631928
75.5094386798       -8.09700388583
76.0095011876       -8.3052295223
76.5095636955       -8.52511591756
77.0096262033       -8.74995295055
77.5096887111       -8.97183521208
78.0097512189       -9.18180327734
78.5098137267       -9.37015257595
79.0098762345       -9.5269242067
79.5099387423       -9.64255909162
80.0100012502       -9.70865489891
80.510063758       -9.71872487249
81.0101262658       -9.66883385422
81.5101887736       -9.55799244285
82.0102512814       -9.38822959392
82.5103137892       -9.16432808389
83.010376297       -8.89327639655
83.5104388049       -8.58354271589
84.0105013127       -8.24429741689
84.5105638205       -7.88469834102
85.0106263283       -7.51331821472
85.5106888361       -7.13775072141
86.0107513439       -6.76439394518
86.5108138517       -6.39838438824
87.0108763595       -6.0436427754
87.5109388674       -5.70299171128
88.0110013752       -5.37831079898
88.511063883       -5.07070323263
89.0111263908       -4.78065645018
89.5111888986       -4.50818670994
90.0112514064       -4.2529629091
90.5113139142       -4.0144086415
91.0113764221       -3.7917837125
91.5114389299       -3.5842474792
92.0115014377       -3.39090681828
92.5115639455       -3.21085152062
93.0116264533       -3.04317967193
93.5116889611       -2.88701523232
94.0117514689       -2.741519657
94.5118139767       -2.60589904845
95.0118764846       -2.47940801962
95.5119389924       -2.36135118519
96.0120015002       -2.25108298265
96.512064008       -2.14800635303
97.0121265158       -2.05157067597
97.5121890236       -1.96126924887
98.0122515314       -1.87663652001
98.5123140393       -1.79724522474
99.0123765471       -1.72270352861
99.5124390549       -1.65265224738
100.012501563       -1.58676218937
100.512564071       -1.52473164754
101.012626578       -1.46628405581
101.512689086       -1.41116581508
102.012751594       -1.35914428835
102.512814102       -1.31000595985
103.01287661       -1.2635547507
103.512939117       -1.21961048191
104.013001625       -1.17800747463
104.513064133       -1.13859327754
105.013126641       -1.10122751111
105.513189149       -1.06578081886
106.013251656       -1.03213391634
106.513314164       -1.00017672905
107.013376672       -0.969807611105
107.51343918       -0.940932637186
108.013501688       -0.9134649609
108.513564196       -0.88732423324
109.013626703       -0.862436075476
109.513689211       -0.838731601299
110.013751719       -0.816146983572
110.513814227       -0.79462306146
111.013876735       -0.774104984174
111.513939242       -0.754541887923
112.01400175       -0.735886603011
112.514064258       -0.71809538837
113.014126766       -0.701127691062
113.514189274       -0.684945928572
114.014251781       -0.66951529195
114.514314289       -0.654803568065
115.014376797       -0.640780979433
115.514439305       -0.627420040261
116.014501813       -0.61469542752
116.514564321       -0.602583865978
117.014626828       -0.591064026319
117.514689336       -0.58011643553
118.014751844       -0.569723398926
118.514814352       -0.559868933245
119.01487686       -0.550538710371
119.514939367       -0.541720011358
120.015001875       -0.533401690497
120.515064383       -0.525574149278
121.015126891       -0.51822932021
121.515189399       -0.511360660517
122.015251906       -0.50496315586
122.515314414       -0.499033334302
123.015376922       -0.493569290846
123.51543943       -0.488570722957
124.015501938       -0.484038977587
124.515564446       -0.479977110312
125.015626953       -0.476389957298
125.515689461       -0.473284220882
126.015751969       -0.470668569673
126.515814477       -0.468553754114
127.015876985       -0.466952738544
127.515939492       -0.465880850781
128.016002       -0.465355950276
128.516064508       -0.465398615761
129.016127016       -0.466032353198
129.516189524       -0.467283824502
130.016252032       -0.469183097065
130.516314539       -0.47176391342
131.016377047       -0.475063979337
131.516439555       -0.47912526721
132.016502063       -0.483994329542
132.516564571       -0.489722614526
133.016627078       -0.496366771878
133.516689586       -0.503988931894
134.016752094       -0.512656933767
134.516814602       -0.522444470038
135.01687711       -0.533431102022
135.516939617       -0.545702085522
136.017002125       -0.559347926314
136.517064633       -0.574463560005
137.017127141       -0.591147020391
137.517189649       -0.609497424148
138.017252157       -0.629612058244
138.517314664       -0.651582312185
139.017377172       -0.675488154743
139.51743968       -0.701390823099
140.017502188       -0.729323385937
140.517564696       -0.759278883325
141.017627203       -0.791195867155
141.517689711       -0.824941407441
142.017752219       -0.860292038364
142.517814727       -0.896913734119
143.017877235       -0.934342841477
143.517939742       -0.971970904692
144.01800225       -1.00903734464
144.518064758       -1.04463470104
145.018127266       -1.0777311743
145.518189774       -1.10721401053
146.018252282       -1.1319544904
146.518314789       -1.1508909626
147.018377297       -1.16312124512
147.518439805       -1.16799126116
148.018502313       -1.16516477577
148.518564821       -1.15466090647
149.018627328       -1.13685178404
149.518689836       -1.11242084719
150.018752344       -1.08229020642
150.518814852       -1.04753081881
151.01887736       -1.00927055495
151.518939867       -0.968612874754
152.019002375       -0.92657420671
152.519064883       -0.884043037226
153.019127391       -0.841759548372
153.519189899       -0.800312048965
154.019252407       -0.760145413065
154.519314914       -0.721576875119
155.019377422       -0.684815329519
155.51943993       -0.649981318751
156.019502438       -0.617125888819
156.519564946       -0.586247303344
157.019627453       -0.557305198791
157.519689961       -0.530232150575
158.019752469       -0.504942845261
158.519814977       -0.481341164041
159.019877485       -0.459325517108
159.519939992       -0.438792758306
160.0200025       -0.419640975868
160.520065008       -0.401771412045
161.020127516       -0.385089720285
161.520190024       -0.369506727675
162.020252532       -0.35493883473
162.520315039       -0.341308154776
163.020377547       -0.328542470909
163.520440055       -0.316575069212
164.020502563       -0.305344491801
164.520565071       -0.294794241607
165.020627578       -0.28487246192
165.520690086       -0.275531606985
166.020752594       -0.266728114948
166.520815102       -0.258422090718
167.02087761       -0.250577003592
167.520940118       -0.243159402531
168.021002625       -0.236138650563
168.521065133       -0.229486678794
169.021127641       -0.223177759854
169.521190149       -0.217188300122
170.021252657       -0.211496649831
170.521315164       -0.206082929947
171.021377672       -0.20092887466
171.52144018       -0.196017688307
172.021502688       -0.191333915527
172.521565196       -0.186863323543
173.021627703       -0.182592795478
173.521690211       -0.178510233717
174.021752719       -0.174604472368
174.521815227       -0.170865197978
175.021877735       -0.167282877719
175.521940243       -0.163848694318
176.02200275       -0.160554487089
176.522065258       -0.15739269848
177.022127766       -0.154356325604
177.522190274       -0.151438876261
178.022252782       -0.148634329041
178.522315289       -0.145937097095
179.022377797       -0.143341995245
179.522440305       -0.140844210108
180.022502813       -0.138439272942
180.522565321       -0.136123034988
181.022627828       -0.13389164505
181.522690336       -0.131741529132
182.022752844       -0.129669371926
182.522815352       -0.127672100015
183.02287786       -0.125746866616
183.522940368       -0.123891037749
184.023002875       -0.122102179704
184.523065383       -0.120378047706
185.023127891       -0.118716575683
185.523190399       -0.117115867044
186.023252907       -0.115574186404
186.523315414       -0.11408995218
187.023377922       -0.112661730004
187.52344043       -0.111288226895
188.023502938       -0.109968286151
188.523565446       -0.108700882911
189.023627953       -0.107485120363
189.523690461       -0.106320226557
190.023752969       -0.10520555181
190.523815477       -0.104140566667
191.023877985       -0.103124860415
191.523940493       -0.102158140132
192.024003       -0.101240230252
192.524065508       -0.100371072663
193.024128016       -0.09955072731
193.524190524       -0.0987793733285
194.024253032       -0.098057310692
194.524315539       -0.0973849624003
195.024378047       -0.0967628772095
195.524440555       -0.0961917329244
196.024503063       -0.0956723402718
196.524565571       -0.0952056473791
197.024628079       -0.0947927448851
197.524690586       -0.0944348717165
198.024753094       -0.0941334215664
198.524815602       -0.0938899501175
199.02487811       -0.0937061830565
199.524940618       -0.0935840249338
200.025003125       -0.0935255689285
200.525065633       -0.0935331075837
201.025128141       -0.0936091445879
201.525190649       -0.0937564076833
202.025253157       -0.0939778627937
202.525315664       -0.0942767294715
203.025378172       -0.0946564977776
203.52544068       -0.0951209467175
204.025503188       -0.095674164371
204.525565696       -0.096320569868
205.025628204       -0.0970649373792
205.525690711       -0.0979124223075
206.025753219       -0.0988685898875
206.525815727       -0.0999394464216
207.025878235       -0.101131473406
207.525940743       -0.102451664831
208.02600325       -0.103907567958
208.526065758       -0.105507327931
209.026128266       -0.107259736602
209.526190774       -0.109174285986
210.026253282       -0.111261226832
210.526315789       -0.113531632829
211.026378297       -0.115997471023
211.526440805       -0.1186716791
212.026503313       -0.121568250244
212.526565821       -0.124702326372
213.026628329       -0.128090300621
213.526690836       -0.131749930067
214.026753344       -0.13570045976
214.526815852       -0.13996275926
215.02687836       -0.144559473006
215.526940868       -0.149515185955
216.027003375       -0.154856606092
216.527065883       -0.160612765548
217.027128391       -0.166815242224
217.527190899       -0.17349840396
218.027253407       -0.180699677457
218.527315914       -0.188459844272
219.027378422       -0.196823366343
219.52744093       -0.205838743533
220.027503438       -0.215558905722
220.527565946       -0.226041641833
221.027628454       -0.237350067981
221.527690961       -0.249553136431
222.027753469       -0.262726186378
222.527815977       -0.27695153637
223.027878485       -0.29231911658
223.527940993       -0.308927136706
224.0280035       -0.326882781933
224.528066008       -0.346302924703
225.028128516       -0.367314833715
225.528191024       -0.390056852977
226.028253532       -0.414679012344
226.52831604       -0.441343515958
227.028378547       -0.47022503558
227.528441055       -0.501510710926
228.028503563       -0.535399728013
228.528566071       -0.57210230847
229.028628579       -0.611837897672
229.528691086       -0.654832288597
230.028753594       -0.701313364649
230.528816102       -0.751505094859
231.02887861       -0.805619380813
231.528941118       -0.863845355395
232.029003625       -0.926335798047
232.529066133       -0.993190499538
233.029128641       -1.06443673106
233.529191149       -1.14000750077
234.029253657       -1.21971905505
234.529316165       -1.30325009868
235.029378672       -1.39012637564
235.52944118       -1.47971534167
236.029503688       -1.57123626517
236.529566196       -1.66379066078
237.029628704       -1.75641591661
237.529691211       -1.84816099987
238.029753719       -1.93817749907
238.529816227       -2.02581312478
239.029878735       -2.11069006239
239.529941243       -2.19274933143
240.03000375       -2.27224583022
240.530066258       -2.34968665551
241.030128766       -2.42571546786
241.530191274       -2.50095515331
242.030253782       -2.57582737845
242.53031629       -2.65037002544
243.030378797       -2.72407281193
243.530441305       -2.79574943241
244.030503813       -2.86346280612
244.530566321       -2.92451880704
245.030628829       -2.97554206374
245.530691336       -3.01264292696
246.030753844       -3.03167540738
246.530816352       -3.02857108221
247.03087886       -2.99971560916
247.530941368       -2.9423175483
248.031003875       -2.8547104485
248.531066383       -2.73653429186
249.031128891       -2.588762692
249.531191399       -2.41357290227
250.031253907       -2.21408726537
250.531316415       -1.99403730507
251.031378922       -1.75740926433
251.53144143       -1.50812265192
252.031503938       -1.24977635822
252.531566446       -0.985477071939
253.031628954       -0.717747803157
253.531691461       -0.448503271973
254.031753969       -0.179074049981
254.531816477       0.0897387355471
255.031878985       0.35759354285
255.531941493       0.624534885383
256.032004001       0.890923716908
256.532066508       1.15737606754
257.032129016       1.42471186231
257.532191524       1.69391425391
258.032254032       1.96609885137
258.53231654       2.24249174715
259.032379047       2.52441507686
259.532441555       2.81327886306
260.032504063       3.11057800905
260.532566571       3.41789346139
261.032629079       3.73689671482
261.532691586       4.06935696869
262.032754094       4.41715034855
