#  x                 y             frequency           rot. str.
0.0      0.138849602433      34.29      7.72
0.500062507813      0.145882853424      44.98      -3.29
1.00012501563      0.15327445167      54.78      -1.40
1.50018752344      0.161046359598      74.21      -8.86
2.00025003125      0.169222139863      148.79      -4.18
2.50031253907      0.177827090523      237.61      -4.44
3.00037504688      0.186888393106      249.03      15.27
3.50043755469      0.196435274946      273.64      1.58
4.00050006251      0.206499187283      311.77      -26.88
4.50056257032      0.217114000807      328.13      -11.43
5.00062507813      0.228316220521      336.66      8.98
5.50068758595      0.240145221988      381.65      -0.59
6.00075009376      0.252643511283      422.07      -5.46
6.50081260158      0.265857011217      431.28      3.57
7.00087510939      0.279835376689      467.92      8.07
7.5009376172      0.294632342331      527.24      -22.63
8.00100012502      0.310306105988      559.74      -14.50
8.50106263283      0.326919751906      619.58      39.48
9.00112514064      0.344541717965      645.40      -45.39
9.50118764846      0.363246311708      660.41      1.04
10.0012501563      0.383114280405      731.36      3.94
10.5013126641      0.404233440909      764.20      31.92
11.0013751719      0.426699375559      794.31      -22.76
11.5014376797      0.450616200951      803.42      39.79
12.0015001875      0.476097416885      819.08      -24.76
12.5015626953      0.503266843312      850.66      -33.36
13.0016252032      0.532259653499      867.38      4.09
13.501687711      0.563223511895      882.00      17.12
14.0017502188      0.596319825281      926.09      -1.43
14.5018127266      0.631725115524      963.23      -1.94
15.0018752344      0.669632521544      973.28      14.54
15.5019377422      0.710253436784      1017.63      -36.29
16.00200025      0.753819286159      1036.18      0.68
16.5020627578      0.800583442917      1110.28      44.21
17.0021252657      0.850823280551      1127.52      -13.16
17.5021877735      0.904842347166      1143.39      -97.88
18.0022502813      0.962972638765      1165.08      -6.99
18.5023127891      1.02557693265      1192.01      -6.01
19.0023752969      1.09305112101      1199.58      2.55
19.5024378047      1.16582645613      1231.95      -7.33
20.0025003125      1.24437157967      1246.23      26.60
20.5025628204      1.3291941569      1287.06      8.39
21.0026253282      1.42084186795      1299.35      8.57
21.502687836      1.51990241822      1339.77      -0.63
22.0027503438      1.62700211373      1359.83      -5.88
22.5028128516      1.74280239832      1367.76      -17.80
23.0028753594      1.86799356272      1375.86      -68.52
23.5029378672      2.00328460538      1418.44      44.64
24.003000375      2.14938795069      1475.02      -10.89
24.5030628829      2.30699741407      1489.45      4.76
25.0031253907      2.47675746318      1552.45      -1.00
25.5031878985      2.65922149185      1635.52      12.37
26.0032504063      2.85479656294      1660.23      0.11
26.5033129141      3.06367199443      1663.53      7.31
27.0033754219      3.28572942352      1800.31      82.20
27.5034379297      3.52043282375      3043.60      -4.66
28.0035004376      3.76669867827      3076.08      10.86
28.5035629454      4.02274948535      3094.69      -3.47
29.0036254532      4.28595831648      3149.65      2.43
29.503687961      4.55269840538      3168.69      2.21
30.0037504688      4.81821941931      3171.55      -0.99
30.5038129766      5.07658008808      3195.71      -1.93
31.0038754844      5.32067309781      3476.82      -3.12
31.5039379922      5.54237932751      3552.93      6.24
32.0040005001      5.73288074062      3706.84      14.17
32.5040630079      5.88314145034      3800.00      6.98
33.0041255157       5.98453451447
33.5041880235       6.02955284409
34.0042505313       6.01250687204
34.5043130391       5.93009313486
35.0043755469       5.78172793326
35.5044380548       5.56958094532
36.0045005626       5.29830502599
36.5045630704       4.97452127697
37.0046255782       4.60616295086
37.504688086       4.20179611745
38.0047505938       3.77001969551
38.5048131016       3.31901265228
39.0048756095       2.85625560206
39.5049381173       2.3884188767
40.0050006251       1.92138508661
40.5050631329       1.46036175363
41.0051256407       1.01003627419
41.5051881485       0.574728119473
42.0052506563       0.158499615317
42.5053131641       -0.234803839357
43.005375672       -0.601600324442
43.5054381798       -0.938704312187
44.0055006876       -1.24352634389
44.5055631954       -1.5143014625
45.0056257032       -1.75029600771
45.505688211       -1.95194125295
46.0057507188       -2.12085492315
46.5058132267       -2.25973540697
47.0058757345       -2.37214134713
47.5059382423       -2.46219239335
48.0060007501       -2.53423860256
48.5060632579       -2.5925445455
49.0061257657       -2.64102277535
49.5061882735       -2.68303567629
50.0062507813       -2.72127033273
50.5063132892       -2.75768130836
51.006375797       -2.79349188359
51.5064383048       -2.82924419219
52.0065008126       -2.86489065117
52.5065633204       -2.89992081579
53.0066258282       -2.93351759181
53.506688336       -2.96473391373
54.0067508439       -2.99267619964
54.5068133517       -3.01667605333
55.0068758595       -3.03642941871
55.5069383673       -3.05208486779
56.0070008751       -3.06427041052
56.5070633829       -3.07405939746
57.0071258907       -3.08288733466
57.5071883985       -3.0924392251
58.0072509064       -3.10452936068
58.5073134142       -3.12099247941
59.007375922       -3.14359878863
59.5074384298       -3.17399804997
60.0075009376       -3.21369175739
60.5075634454       -3.26402843439
61.0076259532       -3.32621528823
61.5076884611       -3.40133936048
62.0077509689       -3.49039219249
62.5078134767       -3.59429325952
63.0078759845       -3.71390859542
63.5079384923       -3.85006191151
64.0080010001       -4.00353603794
64.5080635079       -4.17506270854
65.0081260158       -4.36529864705
65.5081885236       -4.57478570294
66.0082510314       -4.8038925635
66.5083135392       -5.05273551424
67.008376047       -5.32107606246
67.5084385548       -5.60819428632
68.0085010626       -5.912738903
68.5085635704       -6.23255868094
69.0086260783       -6.56452531167
69.5086885861       -6.90436530554
70.0087510939       -7.24652741981
70.5088136017       -7.58412115163
71.0088761095       -7.90896824476
71.5089386173       -8.21180902574
72.0090011251       -8.48269426455
72.509063633       -8.71156797753
73.0091261408       -8.88900783734
73.5091886486       -9.00704445501
74.0092511564       -9.05994190042
74.5093136642       -9.04480532148
75.009376172       -8.96189904556
75.5094386798       -8.81461031848
76.0095011876       -8.60906609596
76.5095636955       -8.35348017266
77.0096262033       -8.05735362497
77.5096887111       -7.73066190566
78.0097512189       -7.38313984099
78.5098137267       -7.02373435089
79.0098762345       -6.66024976286
79.5099387423       -6.29917417666
80.0100012502       -5.94565296707
80.510063758       -5.60356689475
81.0101262658       -5.27567382466
81.5101887736       -4.96378028189
82.0102512814       -4.66891828171
82.5103137892       -4.39151163273
83.010376297       -4.13152303285
83.5104388049       -3.88857843444
84.0105013127       -3.66206851849
84.5105638205       -3.45122906494
85.0106263283       -3.25520294615
85.5106888361       -3.07308675442
86.0107513439       -2.90396497216
86.5108138517       -2.74693428988
87.0108763595       -2.60112029532
87.5109388674       -2.46568836593
88.0110013752       -2.33985023607
88.511063883       -2.22286739708
89.0111263908       -2.11405222566
89.5111888986       -2.01276752341
90.0112514064       -1.91842498089
90.5113139142       -1.83048294715
91.0113764221       -1.74844378353
91.5114389299       -1.67185100269
92.0115014377       -1.60028633495
92.5115639455       -1.53336682037
93.0116264533       -1.4707419921
93.5116889611       -1.41209119336
94.0117514689       -1.3571210525
94.5118139767       -1.30556312904
95.0118764846       -1.25717173438
95.5119389924       -1.21172192543
96.0120015002       -1.16900766516
96.512064008       -1.12884014199
97.0121265158       -1.09104623801
97.5121890236       -1.05546713592
98.0122515314       -1.02195705382
98.5123140393       -0.990382097669
99.0123765471       -0.960619221148
99.5124390549       -0.932555283623
100.012501563       -0.906086197199
100.512564071       -0.88111615468
101.012626578       -0.857556930861
101.512689086       -0.835327250215
102.012751594       -0.814352214665
102.512814102       -0.794562785724
103.01287661       -0.775895315809
103.512939117       -0.758291124065
104.013001625       -0.741696112474
104.513064133       -0.72606041847
105.013126641       -0.711338100654
105.513189149       -0.697486854549
106.013251656       -0.684467755685
106.513314164       -0.672245027539
107.013376672       -0.660785832177
107.51343918       -0.650060081631
108.013501688       -0.640040268289
108.513564196       -0.630701312753
109.013626703       -0.622020427813
109.513689211       -0.613976997325
110.013751719       -0.606552468951
110.513814227       -0.599730259827
111.013876735       -0.593495674374
111.513939242       -0.58783583358
112.01400175       -0.582739615153
112.514064258       -0.578197604099
113.014126766       -0.574202053344
113.514189274       -0.570746854098
114.014251781       -0.567827515792
114.514314289       -0.565441155457
115.014376797       -0.563586496531
115.514439305       -0.562263877161
116.014501813       -0.561475268138
116.514564321       -0.561224300724
117.014626828       -0.561516304675
117.514689336       -0.562358356924
118.014751844       -0.563759341421
118.514814352       -0.565730020799
119.01487686       -0.568283120606
119.514939367       -0.571433426992
120.015001875       -0.575197898871
120.515064383       -0.579595795726
121.015126891       -0.584648822381
121.515189399       -0.590381292248
122.015251906       -0.596820310747
122.515314414       -0.603995980795
123.015376922       -0.611941632501
123.51543943       -0.620694079435
124.015501938       -0.63029390412
124.515564446       -0.640785775648
125.015626953       -0.652218802657
125.515689461       -0.664646925167
126.015751969       -0.678129349139
126.515814477       -0.692731027879
127.015876985       -0.708523194737
127.515939492       -0.725583951787
128.016002       -0.743998919353
128.516064508       -0.763861951327
129.016127016       -0.785275921123
129.516189524       -0.808353582759
130.016252032       -0.833218510888
130.516314539       -0.860006122378
131.016377047       -0.888864780164
131.516439555       -0.919956977253
132.016502063       -0.95346059462
132.516564571       -0.989570220827
133.016627078       -1.02849851292
133.516689586       -1.07047756676
134.016752094       -1.11576024933
134.516814602       -1.16462142453
135.01687711       -1.21735897572
135.516939617       -1.27429449108
136.017002125       -1.33577342883
136.517064633       -1.40216451588
137.017127141       -1.47385805295
137.517189649       -1.55126269674
138.017252157       -1.63480016548
138.517314664       -1.72489716425
139.017377172       -1.82197365549
139.51743968       -1.92642641522
140.017502188       -2.03860663617
140.517564696       -2.15879019956
141.017627203       -2.28713919627
141.517689711       -2.42365342582
142.017752219       -2.56811106657
142.517814727       -2.71999866127
143.017877235       -2.87843219197
143.517939742       -3.04207350179
144.01800225       -3.2090497309
144.518064758       -3.37688759886
145.018127266       -3.54247869313
145.518189774       -3.70209523636
146.018252282       -3.85147631503
146.518314789       -3.98600016141
147.018377297       -4.10094714013
147.518439805       -4.1918405892
148.018502313       -4.25483137542
148.518564821       -4.28707278577
149.018627328       -4.28702267663
149.518689836       -4.25461564329
150.018752344       -4.19127036363
150.518814852       -4.09973059571
151.01887736       -3.9837721251
151.518939867       -3.84783159556
152.019002375       -3.69662046651
152.519064883       -3.53477878487
153.019127391       -3.36660474039
153.519189899       -3.19587459205
154.019252407       -3.02574957347
154.519314914       -2.85875485072
155.019377422       -2.69681070456
155.51943993       -2.54129628206
156.019502438       -2.39312941325
156.519564946       -2.25285028387
157.019627453       -2.12070096508
157.519689961       -1.99669628665
158.019752469       -1.88068410243
158.519814977       -1.7723946938
159.019877485       -1.67148005798
159.519939992       -1.57754432744
160.0200025       -1.49016673609
160.520065008       -1.40891851872
161.020127516       -1.33337499679
161.520190024       -1.26312392587
162.020252532       -1.19777099487
162.520315039       -1.1369431943
163.020377547       -1.08029061948
163.520440055       -1.02748714738
164.020502563       -0.97823032225
164.520565071       -0.932240702557
165.020627578       -0.889260856855
165.520690086       -0.849054146405
166.020752594       -0.811403393935
166.520815102       -0.776109509174
167.02087761       -0.742990120144
167.520940118       -0.711878243217
168.021002625       -0.682621013171
168.521065133       -0.655078486016
169.021127641       -0.629122521257
169.521190149       -0.604635745969
170.021252657       -0.581510600153
170.521315164       -0.559648460863
171.021377672       -0.538958841329
171.52144018       -0.519358660606
172.021502688       -0.500771578867
172.521565196       -0.483127393371
173.021627703       -0.466361490171
173.521690211       -0.450414346812
174.021752719       -0.435231081515
174.521815227       -0.420761044598
175.021877735       -0.406957448231
175.521940243       -0.393777030896
176.02200275       -0.381179753243
176.522065258       -0.369128522323
177.022127766       -0.357588941442
177.522190274       -0.346529083159
178.022252782       -0.335919283171
178.522315289       -0.325731953056
179.022377797       -0.315941410032
179.522440305       -0.3065237221
180.022502813       -0.297456567069
180.522565321       -0.288719104136
181.022627828       -0.280291856812
181.522690336       -0.272156606125
182.022752844       -0.264296293115
182.522815352       -0.256694929759
183.02287786       -0.24933751753
183.522940368       -0.242209972894
184.023002875       -0.235299059102
184.523065383       -0.228592323708
185.023127891       -0.222078041303
185.523190399       -0.215745160986
186.023252907       -0.209583258184
186.523315414       -0.20358249041
187.023377922       -0.197733556658
187.52344043       -0.192027660096
188.023502938       -0.186456473818
188.523565446       -0.181012109381
189.023627953       -0.175687087918
189.523690461       -0.170474313641
190.023752969       -0.165367049534
190.523815477       -0.160358895089
191.023877985       -0.155443765956
191.523940493       -0.150615875363
192.024003       -0.145869717202
192.524065508       -0.1412000507
193.024128016       -0.136601886567
193.524190524       -0.132070474572
194.024253032       -0.127601292482
194.524315539       -0.123190036305
195.024378047       -0.118832611821
195.524440555       -0.114525127357
196.024503063       -0.110263887804
196.524565571       -0.106045389857
197.024628079       -0.101866318505
197.524690586       -0.097723544766
198.024753094       -0.0936141247097
198.524815602       -0.0895352998094
199.02487811       -0.0854844986673
199.524940618       -0.0814593401899
200.025003125       -0.0774576382901
200.525065633       -0.0734774082164
201.025128141       -0.0695168746235
201.525190649       -0.0655744815165
202.025253157       -0.0616489042269
202.525315664       -0.0577390635928
203.025378172       -0.0538441425509
203.52544068       -0.0499636053666
204.025503188       -0.0460972197669
204.525565696       -0.0422450822709
205.025628204       -0.0384076470539
205.525690711       -0.0345857587223
206.025753219       -0.030780689427
206.525815727       -0.0269941807947
207.025878235       -0.0232284912186
207.525940743       -0.0194864491145
208.02600325       -0.0157715128268
208.526065758       -0.0120878379496
209.026128266       -0.00844035292213
209.526190774       -0.00483484386039
210.026253282       -0.00127804970277
210.526315789       0.00222223112917
211.026378297       0.00565702121265
211.526440805       0.00901603025636
212.026503313       0.0122875052272
212.526565821       0.0154580626383
213.026628329       0.0185125009779
213.526690836       0.021433591063
214.026753344       0.024201841903
214.526815852       0.0267952394581
215.02687836       0.0291889554932
215.526940868       0.0313550235667
216.027003375       0.0332619790777
216.527065883       0.0348744602514
217.027128391       0.0361527670106
217.527190899       0.037052374913
218.027253407       0.0375234017969
218.527315914       0.0375100255778
219.027378422       0.0369498528991
219.52744093       0.0357732402388
220.027503438       0.0339025718518
220.527565946       0.0312515028897
221.027628454       0.0277241816098
221.527690961       0.0232144723004
222.027753469       0.0176052111361
222.527815977       0.0107675415493
223.027878485       0.00256039507078
223.527940993       -0.00716979054615
224.0280035       -0.0185889898315
224.528066008       -0.0318749736592
225.028128516       -0.0472159292948
225.528191024       -0.0648080117188
226.028253532       -0.084851426339
226.52831604       -0.107544524828
227.028378547       -0.13307525202
227.528441055       -0.161609112716
228.028503563       -0.1932726375
228.528566071       -0.228131129034
229.028628579       -0.266159290461
229.528691086       -0.307203221306
230.028753594       -0.350932287766
230.528816102       -0.396779644857
231.02887861       -0.443870861598
231.528941118       -0.490941370043
232.029003625       -0.536245530939
232.529066133       -0.577463142531
233.029128641       -0.611613214628
233.529191149       -0.634989461376
234.029253657       -0.64313638532
234.529316165       -0.630887527347
235.029378672       -0.592486360359
235.52944118       -0.521803244244
236.029503688       -0.412647595982
236.529566196       -0.259153972235
237.029628704       -0.0561983631697
237.529691211       0.200216170923
238.029753719       0.512669502289
238.529816227       0.882181378494
239.029878735       1.30823672562
239.529941243       1.78896302845
240.03000375       2.32140987221
240.530066258       2.90186125734
241.030128766       3.52611005606
241.530191274       4.18963827694
242.030253782       4.88766978976
242.53031629       5.61508667601
243.030378797       6.36622178622
243.530441305       7.13455712549
244.030503813       7.91237151043
244.530566321       8.69039340629
245.030628829       9.45752677731
245.530691336       10.2007276096
246.030753844       10.9051119861
246.530816352       11.5543662962
247.03087886       12.1314992032
247.530941368       12.6199198997
248.031003875       13.0047528554
248.531066383       13.2742219627
249.031128891       13.4208822472
249.531191399       13.4424710963
250.031253907       13.3422064959
250.531316415       13.1284675146
251.031378922       12.8139204231
251.53144143       12.4142613813
252.031503938       11.9468018809
252.531566446       11.4291166907
253.031628954       10.8779193386
253.531691461       10.3082532838
254.031753969       9.73301356774
254.531816477       9.16276029191
255.031878985       8.60575681019
255.531941493       8.06815867121
256.032004001       7.55428685998
256.532066508       7.06693339188
257.032129016       6.60766325195
257.532191524       6.1770907849
258.032254032       5.77511955481
258.53231654       5.40114226761
259.032379047       5.05420207092
259.532441555       4.73311911246
260.032504063       4.43658732575
260.532566571       4.16324656993
261.032629079       3.91173488285
261.532691586       3.68072498329
262.032754094       3.46894844922
