#  x                 y             frequency           rot. str.
0.0      -0.0439267111395      30.09      -10.93
0.500062507813      -0.0516251915745      43.56      19.54
1.00012501563      -0.0598991491731      64.00      2.08
1.50018752344      -0.0687932364998      97.58      8.03
2.00025003125      -0.078355972533      155.79      -6.29
2.50031253907      -0.0886401156897      240.66      -9.57
3.00037504688      -0.0997030761323      282.61      6.40
3.50043755469      -0.11160737172      318.53      -18.55
4.00050006251      -0.124421132451      324.04      14.16
4.50056257032      -0.138218658753      328.66      -65.76
5.00062507813      -0.153081039574      340.92      14.61
5.50068758595      -0.169096836794      397.01      -8.38
6.00075009376      -0.186362843172      420.55      7.43
6.50081260158      -0.204984921677      430.69      0.66
7.00087510939      -0.225078934784      491.91      -13.75
7.5009376172      -0.246771772972      533.61      13.48
8.00100012502      -0.270202492338      562.26      20.13
8.50106263283      -0.295523571803      648.66      -0.35
9.00112514064      -0.322902300818      661.07      5.12
9.50118764846      -0.352522308676      726.34      8.49
10.0012501563      -0.384585246362      749.00      -13.60
10.5013126641      -0.419312631196      788.84      49.17
11.0013751719      -0.456947863049      802.51      -25.56
11.5014376797      -0.497758418385      815.07      -36.32
12.0015001875      -0.542038224354      823.27      59.09
12.5015626953      -0.590110208999      844.13      -21.46
13.0016252032      -0.642329014738      866.97      -8.07
13.501687711      -0.699083849411      892.60      72.24
14.0017502188      -0.760801431227      931.93      -6.68
14.5018127266      -0.827948958981      946.47      0.15
15.0018752344      -0.901037004785      963.90      -24.38
15.5019377422      -0.980622180257      993.89      -7.14
16.00200025      -1.06730936501      1036.00      -0.04
16.5020627578      -1.16175320358      1080.14      -6.81
17.0021252657      -1.26465846809      1121.17      4.36
17.5021877735      -1.37677874188      1152.30      89.48
18.0022502813      -1.49891269672      1190.18      51.86
18.5023127891      -1.63189700376      1200.50      -2.36
19.0023752969      -1.77659462985      1224.72      0.97
19.5024378047      -1.93387691821      1234.59      -4.93
20.0025003125      -2.10459743865      1239.63      -1.52
20.5025628204      -2.28955512585      1289.57      6.92
21.0026253282      -2.48944373772      1320.37      6.17
21.502687836      -2.70478422021      1345.66      -7.39
22.0027503438      -2.93583627313      1364.71      13.27
22.5028128516      -3.1824854531      1368.49      22.52
23.0028753594      -3.44410279746      1373.40      -29.96
23.5029378672      -3.71937558321      1397.89      -11.62
24.003000375      -4.00611091973      1477.61      11.64
24.5030628829      -4.30101891939      1492.06      -1.31
25.0031253907      -4.5994895878      1554.11      -7.93
25.5031878985      -4.89538732977      1637.78      -3.87
26.0032504063      -5.18089828023      1656.84      -27.73
26.5033129141      -5.44647646724      1661.35      2.77
27.0033754219      -5.68094140194      1842.88      -180.54
27.5034379297      -5.87177694443      3018.37      -3.14
28.0035004376      -6.00566386447      3041.09      16.20
28.5035629454      -6.06924328537      3068.11      -0.55
29.0036254532      -6.05005755552      3155.20      -0.06
29.503687961      -5.93755937791      3157.05      1.14
30.0037504688      -5.72403682099      3179.03      -4.43
30.5038129766      -5.4052904049      3196.34      1.53
31.0038754844      -4.98093061801      3490.63      27.96
31.5039379922      -4.4542362715      3502.56      -63.78
32.0040005001      -3.83160565301      3573.87      2.94
32.5040630079      -3.1217143763      3799.09      -5.37
33.0041255157       -2.33454143044
33.5041880235       -1.48042839681
34.0042505313       -0.569303220638
34.5043130391       0.389852968209
35.0043755469       1.38927078726
35.5044380548       2.42240485191
36.0045005626       3.48373251621
36.5045630704       4.56838681597
37.0046255782       5.67167040883
37.504688086       6.788493185
38.0047505938       7.9127740524
38.5048131016       9.03685046628
39.0048756095       10.1509487012
39.5049381173       11.2427823279
40.0050006251       12.2973616778
40.5050631329       13.2971059757
41.0051256407       14.2223425175
41.5051881485       15.052243891
42.0052506563       15.7661893348
42.5053131641       16.3454447654
43.005375672       16.7749570614
43.5054381798       17.0449837821
44.0055006876       17.1522636881
44.5055631954       17.1004958868
45.0056257032       16.9000275049
45.505688211       16.5668134536
46.0057507188       16.1208547918
46.5058132267       15.5844014967
47.0058757345       14.9802055593
47.5059382423       14.3300456402
48.0060007501       13.6536474946
48.5060632579       12.9680286458
49.0061257657       12.2872239629
49.5061882735       11.6223088525
50.0062507813       10.9816253193
50.5063132892       10.3711241784
51.006375797       9.79475464464
51.5064383048       9.25485293914
52.0065008126       8.7524999576
52.5065633204       8.28783245059
53.0066258282       7.86030225698
53.506688336       7.46888447408
54.0067508439       7.11223892202
54.5068133517       6.78883074755
55.0068758595       6.49701624367
55.5069383673       6.23509948909
56.0070008751       6.00136462319
56.5070633829       5.79408773475
57.0071258907       5.6115316463
57.5071883985       5.45192646213
58.0072509064       5.3134387386
58.5073134142       5.19413262866
59.007375922       5.09192740646
59.5074384298       5.00455735805
60.0075009376       4.92954192301
60.5075634454       4.86417572802
61.0076259532       4.80554898833
61.5076884611       4.75060765139
62.0077509689       4.69625862532
62.5078134767       4.63951802323
63.0078759845       4.57769027077
63.5079384923       4.50855542769
64.0080010001       4.43053467358
64.5080635079       4.34280314152
65.0081260158       4.24532692938
65.5081885236       4.13881583344
66.0082510314       4.02460077331
66.5083135392       3.90445942561
67.008376047       3.78042097393
67.5084385548       3.65457987942
68.0085010626       3.52894104317
68.5085635704       3.4053082343
69.0086260783       3.2852176829
69.5086885861       3.16991149809
70.0087510939       3.06034173702
70.5088136017       2.95719504934
71.0088761095       2.86092886364
71.5089386173       2.77181206514
72.0090011251       2.68996528413
72.509063633       2.61539783288
73.0091261408       2.54803981001
73.5091886486       2.48776891888
74.0092511564       2.4344321868
74.5093136642       2.38786312056
75.009376172       2.34789498251
75.5094386798       2.31437089462
76.0095011876       2.28715143152
76.5095636955       2.26612028217
77.0096262033       2.25118846909
77.5096887111       2.24229752447
78.0097512189       2.23942194247
78.5098137267       2.24257115745
79.0098762345       2.25179124038
79.5099387423       2.26716645714
80.0100012502       2.28882079268
80.510063758       2.31691951077
81.0101262658       2.35167078871
81.5101887736       2.39332743716
82.0102512814       2.44218868491
82.5103137892       2.4986019748
83.010376297       2.5629646763
83.5104388049       2.63572556981
84.0105013127       2.71738589395
84.5105638205       2.80849966401
85.0106263283       2.90967286395
85.5106888361       3.02156097827
86.0107513439       3.1448641582
86.5108138517       3.28031910342
87.0108763595       3.42868648054
87.5109388674       3.59073239489
88.0110013752       3.76720208942
88.511063883       3.9587836881
89.0111263908       4.16605947795
89.5111888986       4.38944201618
90.0112514064       4.62909239333
90.5113139142       4.88481848088
91.0113764221       5.15595222233
91.5114389299       5.44120733942
92.0115014377       5.73852258964
92.5115639455       6.0449012097
93.0116264533       6.35626439793
93.5116889611       6.66734501252
94.0117514689       6.97165552557
94.5118139767       7.26156891435
95.0118764846       7.52854879945
95.5119389924       7.76355184132
96.0120015002       7.95759899801
96.512064008       8.10247466761
97.0121265158       8.19147180942
97.5121890236       8.22006990534
98.0122515314       8.1864251629
98.5123140393       8.09157700953
99.0123765471       7.93932847664
99.5124390549       7.73582515428
100.012501563       7.48891654907
100.512564071       7.20741703701
101.012626578       6.90038443348
101.512689086       6.57650813592
102.012751594       6.24365905659
102.512814102       5.90861404379
103.01287661       5.57693763266
103.512939117       5.25298719967
104.013001625       4.94000261504
104.513064133       4.64024463036
105.013126641       4.35515355187
105.513189149       4.08550815127
106.013251656       3.83157237786
106.513314164       3.59322342135
107.013376672       3.37005888893
107.51343918       3.16148353101
108.013501688       2.96677743711
108.513564196       2.78514828887
109.013626703       2.61577040095
109.513689211       2.45781312533
110.013751719       2.31046089242
110.513814227       2.17292680878
111.013876735       2.0444613818
111.513939242       1.9243576253
112.01400175       1.81195352775
112.514064258       1.70663263973
113.014126766       1.60782335486
113.514189274       1.51499731489
114.014251781       1.42766725703
114.514314289       1.3453845355
115.014376797       1.2677364839
115.514439305       1.19434373519
116.014501813       1.12485757969
116.514564321       1.05895741417
117.014626828       0.99634831529
117.514689336       0.936758756351
118.014751844       0.879938476227
118.514814352       0.825656502103
119.01487686       0.773699322926
119.514939367       0.723869207223
120.015001875       0.675982656952
120.515064383       0.629868987936
121.015126891       0.585369026853
121.515189399       0.54233391465
122.015251906       0.500624006401
122.515314414       0.46010785793
123.015376922       0.420661289976
123.51543943       0.382166521135
124.015501938       0.344511361333
124.515564446       0.307588458035
125.015626953       0.271294587902
125.515689461       0.235529986966
126.015751969       0.200197712823
126.515814477       0.165203032602
127.015876985       0.130452830793
127.515939492       0.0958550311562
128.016002       0.0613180271402
128.516064508       0.026750115286
129.016127016       -0.0079410738505
129.516189524       -0.0428491527592
130.016252032       -0.0780695675959
130.516314539       -0.113700208074
131.016377047       -0.149842042521
131.516439555       -0.186599784231
132.016502063       -0.224082595508
132.516564571       -0.262404836124
133.016627078       -0.30168686323
133.516689586       -0.342055890109
134.016752094       -0.383646911493
134.516814602       -0.426603703425
135.01687711       -0.471079905851
135.516939617       -0.517240196146
136.017002125       -0.565261561542
136.517064633       -0.61533467789
137.017127141       -0.667665401016
137.517189649       -0.722476375146
138.017252157       -0.780008759931
138.517314664       -0.840524073305
139.017377172       -0.904306141134
139.51743968       -0.971663135676
140.017502188       -1.04292967239
140.517564696       -1.11846891745
141.017627203       -1.1986746347
141.517689711       -1.2839730693
142.017752219       -1.3748245225
142.517814727       -1.47172441618
143.017877235       -1.57520357183
143.517939742       -1.68582733324
144.01800225       -1.80419304055
144.518064758       -1.93092520979
145.018127266       -2.06666758394
145.518189774       -2.21207099694
146.018252282       -2.36777573392
146.518314789       -2.53438679313
147.018377297       -2.71244018499
147.518439805       -2.90235819418
148.018502313       -3.10439146926
148.518564821       -3.31854602711
149.018627328       -3.54449396027
149.518689836       -3.78146806773
150.018752344       -4.02814308362
150.518814852       -4.2825099187
151.01887736       -4.54175446217
151.518939867       -4.80215876044
152.019002375       -5.05904890081
152.519064883       -5.30681890759
153.019127391       -5.53906071657
153.519189899       -5.74882367025
154.019252407       -5.92901049537
154.519314914       -6.07289037276
155.019377422       -6.17467766986
155.51943993       -6.23009597139
156.019502438       -6.23683248235
156.519564946       -6.19479671142
157.019627453       -6.10613107609
157.519689961       -5.97497123548
158.019752469       -5.8070048286
158.519814977       -5.60891282827
159.019877485       -5.38778867514
159.519939992       -5.15061744564
160.0200025       -4.90386912366
160.520065008       -4.6532278734
161.020127516       -4.4034521694
161.520190024       -4.15834330137
162.020252532       -3.92079241159
162.520315039       -3.69287649374
163.020377547       -3.47597852787
163.520440055       -3.27091339156
164.020502563       -3.07804752059
164.520565071       -2.89740553508
165.020627578       -2.72876090069
165.520690086       -2.57171024578
166.020752594       -2.42573245993
166.520815102       -2.29023445056
167.02087761       -2.16458568743
167.520940118       -2.04814362168
168.021002625       -1.94027186428
168.521065133       -1.84035274164
169.021127641       -1.74779556739
169.521190149       -1.66204170911
170.021252657       -1.58256730133
170.521315164       -1.50888426462
171.021377672       -1.44054013477
171.52144018       -1.37711708194
172.021502688       -1.31823040206
172.521565196       -1.26352668754
173.021627703       -1.212681827
173.521690211       -1.16539894001
174.021752719       -1.12140632083
174.521815227       -1.08045544038
175.021877735       -1.04231903879
175.521940243       -1.00678932744
176.02200275       -0.97367631062
176.522065258       -0.942806230411
177.022127766       -0.914020133961
177.522190274       -0.887172559359
178.022252782       -0.86213033448
178.522315289       -0.838771482049
179.022377797       -0.816984223601
179.522440305       -0.796666074874
180.022502813       -0.777723025203
180.522565321       -0.760068793812
181.022627828       -0.743624156186
181.522690336       -0.728316334214
182.022752844       -0.71407844418
182.522815352       -0.700848997194
183.02287786       -0.68857144709
183.522940368       -0.677193781257
184.023002875       -0.666668150298
184.523065383       -0.656950532783
185.023127891       -0.648000431733
185.523190399       -0.639780599801
186.023252907       -0.632256790415
186.523315414       -0.625397532426
187.023377922       -0.619173926053
187.52344043       -0.613559458139
188.023502938       -0.608529834952
188.523565446       -0.604062830922
189.023627953       -0.600138151902
189.523690461       -0.596737311672
190.023752969       -0.593843520537
190.523815477       -0.591441585019
191.023877985       -0.589517817715
191.523940493       -0.588059956524
192.024003       -0.587057092526
192.524065508       -0.586499605865
193.024128016       -0.586379109085
193.524190524       -0.586688397425
194.024253032       -0.587421405634
194.524315539       -0.588573170938
195.024378047       -0.590139801839
195.524440555       -0.592118452464
196.024503063       -0.594507302258
196.524565571       -0.597305540817
197.024628079       -0.600513357736
197.524690586       -0.60413193737
198.024753094       -0.608163458439
198.524815602       -0.612611098455
199.02487811       -0.617479042998
199.524940618       -0.622772499869
200.025003125       -0.62849771823
200.525065633       -0.634662012846
201.025128141       -0.6412737936
201.525190649       -0.648342600498
202.025253157       -0.655879144403
202.525315664       -0.663895353811
203.025378172       -0.67240442801
203.52544068       -0.681420897029
204.025503188       -0.69096068884
204.525565696       -0.701041204325
205.025628204       -0.711681400611
205.525690711       -0.722901883437
206.025753219       -0.734725009293
206.525815727       -0.74717499818
207.025878235       -0.760278057925
207.525940743       -0.774062521098
208.02600325       -0.788558995712
208.526065758       -0.803800530997
209.026128266       -0.819822799726
209.526190774       -0.836664298708
210.026253282       -0.854366569257
210.526315789       -0.872974439676
211.026378297       -0.892536291976
211.526440805       -0.913104355369
212.026503313       -0.934735029304
212.526565821       -0.957489239162
213.026628329       -0.981432828056
213.526690836       -1.0066369886
214.026753344       -1.03317873886
214.526815852       -1.06114144733
215.02687836       -1.09061541201
215.526940868       -1.12169849954
216.027003375       -1.15449685073
216.527065883       -1.18912565943
217.027128391       -1.22571003268
217.527190899       -1.26438594023
218.027253407       -1.30530126281
218.527315914       -1.34861694888
219.027378422       -1.39450829015
219.52744093       -1.44316632709
220.027503438       -1.49479939551
220.527565946       -1.54963482578
221.027628454       -1.60792080552
221.527690961       -1.66992841593
222.027753469       -1.7359538498
222.527815977       -1.80632081625
223.027878485       -1.88138313225
223.527940993       -1.96152749384
224.0280035       -2.04717640937
224.528066008       -2.13879126212
225.028128516       -2.23687544916
225.528191024       -2.34197751426
226.028253532       -2.45469415428
226.52831604       -2.57567292564
227.028378547       -2.70561440776
227.528441055       -2.84527348787
228.028503563       -2.99545931117
228.528566071       -3.15703328416
229.028628579       -3.33090432124
229.528691086       -3.51802027694
230.028753594       -3.71935420416
230.528816102       -3.93588372171
231.02887861       -4.16856137048
231.528941118       -4.418273413
232.029003625       -4.68578413534
232.529066133       -4.9716624395
233.029128641       -5.27618751735
233.529191149       -5.59923090748
234.029253657       -5.9401135725
234.529316165       -6.29743920584
235.029378672       -6.66890922604
235.52944118       -7.05113120359
236.029503688       -7.43944083409
236.529566196       -7.82776740276
237.029628704       -8.20858227345
237.529691211       -8.57297617054
238.029753719       -8.91090950098
238.529816227       -9.21166594303
239.029878735       -9.46450999729
239.529941243       -9.65950570722
240.03000375       -9.78840472441
240.530066258       -9.8454722774
241.030128766       -9.82810643151
241.530191274       -9.73713053525
242.030253782       -9.57669902927
242.53031629       -9.35383608546
243.030378797       -9.07769957027
243.530441305       -8.75870715632
244.030503813       -8.4076671168
244.530566321       -8.03502850033
245.030628829       -7.65031909084
245.530691336       -7.26179167129
246.030753844       -6.87626173159
246.530816352       -6.49909783672
247.03087886       -6.13431839757
247.530941368       -5.78475139787
248.031003875       -5.4522219567
248.531066383       -5.13774260805
249.031128891       -4.8416904438
249.531191399       -4.56396266218
250.031253907       -4.30410734013
250.531316415       -4.06142963678
251.031378922       -3.83507555878
251.53144143       -3.62409631109
252.031503938       -3.42749648945
252.531566446       -3.24426921811
253.031628954       -3.07342099077
253.531691461       -2.91398855416
254.031753969       -2.76504975417
254.531816477       -2.62572988107
255.031878985       -2.49520471897
255.531941493       -2.3727012291
256.032004001       -2.25749657309
256.532066508       -2.14891600541
257.032129016       -2.04633002573
257.532191524       -1.94915107518
258.032254032       -1.85682997949
258.53231654       -1.76885228025
259.032379047       -1.68473454981
259.532441555       -1.60402075134
260.032504063       -1.52627868024
260.532566571       -1.45109650527
261.032629079       -1.37807941446
261.532691586       -1.30684636174
262.032754094       -1.23702690413
262.532816602       -1.1682581152
263.03287911       -1.10018155831
263.532941618       -1.0324403026
264.033004126       -0.964675965174
264.533066633       -0.896525765199
265.033129141       -0.827619579081
