#  x                 y             frequency           rot. str.
0.0      0.432911832296      24.46      -2.56
0.500062507813      0.442066593158      40.05      20.41
1.00012501563      0.451396770687      67.29      6.11
1.50018752344      0.460898814272      90.77      -21.24
2.00025003125      0.470567968882      163.37      3.39
2.50031253907      0.480398103916      177.42      -4.34
3.00037504688      0.490381521755      253.80      -0.71
3.50043755469      0.500508744213      296.74      7.39
4.00050006251      0.510768275144      308.47      -16.17
4.50056257032      0.521146337603      322.79      13.49
5.00062507813      0.53162658427      348.87      -17.83
5.50068758595      0.542189780352      387.14      -13.71
6.00075009376      0.552813458963      423.06      5.63
6.50081260158      0.563471550187      431.73      -27.27
7.00087510939      0.574133986761      466.77      -0.34
7.5009376172      0.584766291782      526.75      -28.43
8.00100012502      0.59532915732      534.32      5.43
8.50106263283      0.605778027615      565.26      0.65
9.00112514064      0.616062707105      648.88      17.86
9.50118764846      0.626127022462      659.37      0.94
10.0012501563      0.635908579792      723.87      -3.63
10.5013126641      0.645338674193      743.38      -11.16
11.0013751719      0.654342429981      791.69      2.34
11.5014376797      0.662839277718      799.66      18.59
12.0015001875      0.670743910093      825.14      3.97
12.5015626953      0.677967904882      852.01      -30.69
13.0016252032      0.684422261393      867.63      9.28
13.501687711      0.690021168854      906.76      16.39
14.0017502188      0.694687412216      944.95      1.06
14.5018127266      0.6983599222      968.12      0.10
15.0018752344      0.701004088649      978.55      6.38
15.5019377422      0.702625570502      1012.01      -38.47
16.00200025      0.703288434869      1035.70      0.75
16.5020627578      0.703138511837      1119.90      18.22
17.0021252657      0.702432813551      1140.79      44.88
17.5021877735      0.701575665691      1160.13      -45.19
18.0022502813      0.701161742407      1182.34      21.15
18.5023127891      0.702025367211      1192.28      6.42
19.0023752969      0.705294126385      1201.12      -6.97
19.5024378047      0.712442962308      1232.02      1.58
20.0025003125      0.725342508903      1238.53      -1.93
20.5025628204      0.746292753591      1293.89      -9.90
21.0026253282      0.778030739104      1299.77      105.02
21.502687836      0.823699917841      1328.92      -40.32
22.0027503438      0.886770193406      1355.74      -95.87
22.5028128516      0.970902812871      1365.69      -10.68
23.0028753594      1.07976357972      1370.19      -18.94
23.5029378672      1.2168003351      1408.53      14.61
24.003000375      1.38501338376      1473.78      2.83
24.5030628829      1.58675613015      1494.13      -5.61
25.0031253907      1.82360335567      1552.29      -5.73
25.5031878985      2.09631434339      1631.28      -1.98
26.0032504063      2.40489937628      1658.85      3.04
26.5033129141      2.74877655328      1674.49      7.33
27.0033754219      3.12698823396      1829.52      35.78
27.5034379297      3.53843778085      3024.26      10.68
28.0035004376      3.98210883166      3041.64      0.71
28.5035629454      4.4572385762      3083.14      -3.84
29.0036254532      4.96342896899      3157.34      -1.30
29.503687961      5.50069125245      3162.56      1.57
30.0037504688      6.06942700901      3179.26      -1.59
30.5038129766      6.67035252454      3197.93      1.22
31.0038754844      7.30437324065      3479.46      -1.58
31.5039379922      7.97241285973      3545.22      5.87
32.0040005001      8.67519867981      3701.34      56.86
32.5040630079      9.41300222703      3797.44      -6.41
33.0041255157       10.1853332605
33.5041880235       10.9905866765
34.0042505313       11.8256466373
34.5043130391       12.6854612508
35.0043755469       13.5626149048
35.5044380548       14.4469437127
36.0045005626       15.3252607249
36.5045630704       16.1812774064
37.0046255782       16.9958191952
37.504688086       17.747425977
38.0047505938       18.4133931656
38.5048131016       18.9712405469
39.0048756095       19.4004996728
39.5049381173       19.6846069556
40.0050006251       19.8126123057
40.5050631329       19.7803976803
41.0051256407       19.591166374
41.5051881485       19.2551026378
42.0052506563       18.7882720242
42.5053131641       18.2109810573
43.005375672       17.5458959716
43.5054381798       16.8162187464
44.0055006876       16.0441500151
44.5055631954       15.249766745
45.0056257032       14.4503428458
45.505688211       13.660066423
46.0057507188       12.890066282
46.5058132267       12.1486487992
47.0058757345       11.4416549599
47.5059382423       10.7728662231
48.0060007501       10.1444092165
48.5060632579       9.55712845522
49.0061257657       9.0109112766
49.5061882735       8.50495970254
50.0062507813       8.0380105611
50.5063132892       7.60850886193
51.006375797       7.21474102528
51.5064383048       6.85493487265
52.0065008126       6.52733285142
52.5065633204       6.2302441646
53.0066258282       5.96208054527
53.506688336       5.72137948873
54.0067508439       5.50681790118
54.5068133517       5.31721836602
55.0068758595       5.15154956944
55.5069383673       5.0089218505
56.0070008751       4.88857833111
56.5070633829       4.78988161688
57.0071258907       4.7122956256
57.5071883985       4.65536168511
58.0072509064       4.61866764884
58.5073134142       4.60180842139
59.007375922       4.60433601297
59.5074384298       4.62569712711
60.0075009376       4.66515645873
60.5075634454       4.72170452146
61.0076259532       4.79395017772
61.5076884611       4.88000039153
62.0077509689       4.97733331865
62.5078134767       5.08267580051
63.0078759845       5.19190239636
63.5079384923       5.29997942112
64.0080010001       5.40098235091
64.5080635079       5.48821581767
65.0081260158       5.55445917067
65.5081885236       5.59234479751
66.0082510314       5.59485098568
66.5083135392       5.55586002714
67.008376047       5.47070397913
67.5084385548       5.33660592737
68.0085010626       5.15293262569
68.5085635704       4.92120667312
69.0086260783       4.64487491428
69.5086885861       4.32887933167
70.0087510939       3.97911167479
70.5088136017       3.60184426811
71.0088761095       3.20321734327
71.5089386173       2.78883607492
72.0090011251       2.36349922834
72.509063633       1.93105489012
73.0091261408       1.49436169732
73.5091886486       1.05532665019
74.0092511564       0.614990747999
74.5093136642       0.173638263483
75.009376172       -0.269088219311
75.5094386798       -0.714078652584
76.0095011876       -1.16265870519
76.5095636955       -1.61650784199
77.0096262033       -2.07759222009
77.5096887111       -2.54811064753
78.0097512189       -3.03045085684
78.5098137267       -3.52715276674
79.0098762345       -4.04087502922
79.5099387423       -4.57436083212
80.0100012502       -5.13039854834
80.510063758       -5.71177233083
81.0101262658       -6.32119713344
81.5101887736       -6.96123191979
82.0102512814       -7.63416409958
82.5103137892       -8.34185768411
83.010376297       -9.08555758389
83.5104388049       -9.86564334801
84.0105013127       -10.6813281334
84.5105638205       -11.5303036549
85.0106263283       -12.4083402911
85.5106888361       -13.3088642924
86.0107513439       -14.2225515019
86.5108138517       -15.136998251
87.0108763595       -16.036552051
87.5109388674       -16.902401303
88.0110013752       -17.713025349
88.511063883       -18.445083111
89.0111263908       -19.074762078
89.5111888986       -19.5795197361
90.0112514064       -19.9400411955
90.5113139142       -20.1421397672
91.0113764221       -20.1782796625
91.5114389299       -20.0484318862
92.0115014377       -19.7600900833
92.5115639455       -19.3274432192
93.0116264533       -18.7698731107
93.5116889611       -18.1100630695
94.0117514689       -17.3720388377
94.5118139767       -16.579417765
95.0118764846       -15.7540462433
95.5119389924       -14.9150968843
96.0120015002       -14.0786062738
96.512064008       -13.2573764283
97.0121265158       -12.4611389476
97.5121890236       -11.6968822604
98.0122515314       -10.9692586154
98.5123140393       -10.2810093558
99.0123765471       -9.6333683363
99.5124390549       -9.02642094183
100.012501563       -8.45940906594
100.512564071       -7.93098092805
101.012626578       -7.43938961761
101.512689086       -6.9826467393
102.012751594       -6.55863835934
102.512814102       -6.16521028738
103.01287661       -5.80022904071
103.512939117       -5.46162393134
104.013001625       -5.14741477662
104.513064133       -4.8557288573
105.013126641       -4.58480998111
105.513189149       -4.33302186687
106.013251656       -4.09884754064
106.513314164       -3.88088601756
107.013376672       -3.67784721674
107.51343918       -3.48854580321
108.013501688       -3.31189445868
108.513564196       -3.14689693677
109.013626703       -2.99264114958
109.513689211       -2.84829245182
110.013751719       -2.71308722921
110.513814227       -2.58632685547
111.013876735       -2.46737205111
111.513939242       -2.35563765597
112.01400175       -2.25058781252
112.514064258       -2.15173154709
113.014126766       -2.05861872996
113.514189274       -1.97083639148
114.014251781       -1.88800536959
114.514314289       -1.80977726342
115.014376797       -1.73583166822
115.514439305       -1.66587366732
116.014501813       -1.59963155846
116.514564321       -1.53685479294
117.014626828       -1.47731210788
117.514689336       -1.42078983312
118.014751844       -1.36709035609
118.514814352       -1.31603072933
119.01487686       -1.26744140668
119.514939367       -1.22116509562
120.015001875       -1.17705571419
120.515064383       -1.13497744241
121.015126891       -1.09480385861
121.515189399       -1.05641715246
122.015251906       -1.01970740707
122.515314414       -0.984571943328
123.015376922       -0.950914720276
123.51543943       -0.918645786068
124.015501938       -0.887680774406
124.515564446       -0.857940441971
125.015626953       -0.829350242721
125.515689461       -0.801839935374
126.015751969       -0.775343220668
126.515814477       -0.749797405362
127.015876985       -0.725143090161
127.515939492       -0.701323879008
128.016002       -0.678286107395
128.516064508       -0.655978587527
129.016127016       -0.63435236832
129.516189524       -0.613360508363
130.016252032       -0.592957860103
130.516314539       -0.573100863566
131.016377047       -0.553747348061
131.516439555       -0.534856340333
132.016502063       -0.516387877706
132.516564571       -0.498302824764
133.016627078       -0.480562692156
133.516689586       -0.463129456094
134.016752094       -0.445965377099
134.516814602       -0.429032816542
135.01687711       -0.412294049433
135.516939617       -0.395711071909
136.017002125       -0.379245401738
136.517064633       -0.362857870108
137.017127141       -0.346508402809
137.517189649       -0.33015578884
138.017252157       -0.313757434279
138.517314664       -0.297269099116
139.017377172       -0.280644614561
139.51743968       -0.263835578157
140.017502188       -0.246791023788
140.517564696       -0.229457063519
141.017627203       -0.21177649794
141.517689711       -0.193688391534
142.017752219       -0.175127609399
142.517814727       -0.156024311567
143.017877235       -0.13630340112
143.517939742       -0.115883922418
144.01800225       -0.0946784060665
144.518064758       -0.0725921577901
145.018127266       -0.049522489394
145.518189774       -0.025357891448
146.018252282       2.2850391591e-05
146.518314789       0.0267515902618
147.018377297       0.0549717983786
147.518439805       0.0848395624617
148.018502313       0.116524589101
148.518564821       0.150211167692
149.018627328       0.186099043123
149.518689836       0.224404121378
150.018752344       0.265358903091
150.518814852       0.309212501816
151.01887736       0.356230054175
151.518939867       0.406691265578
152.019002375       0.460887755232
152.519064883       0.51911876555
153.019127391       0.581684682713
153.519189899       0.648877678409
154.019252407       0.72096863359
154.519314914       0.798189357117
155.019377422       0.880708991151
155.51943993       0.968603445053
156.019502438       1.06181678901
156.519564946       1.16011386704
157.019627453       1.26302408841
157.519689961       1.36977758166
158.019752469       1.47923679487
158.519814977       1.5898292765
159.019877485       1.69949067573
159.519939992       1.80563054172
160.0200025       1.90513640335
160.520065008       1.99443249518
161.020127516       2.06960666885
161.520190024       2.12661104151
162.020252532       2.16152849929
162.520315039       2.17088014841
163.020377547       2.15193257351
163.520440055       2.10295432675
164.020502563       2.02337368841
164.520565071       1.91380601436
165.020627578       1.77594518316
165.520690086       1.61234171474
166.020752594       1.42611115024
166.520815102       1.22062451628
167.02087761       0.999227693192
167.520940118       0.765022387434
168.021002625       0.520724218066
168.521065133       0.268598375007
169.021127641       0.010463234457
169.521190149       -0.252252363808
170.021252657       -0.518412957486
170.521315164       -0.787054300197
171.021377672       -1.05724549967
171.52144018       -1.32794378274
172.021502688       -1.59784961892
172.521565196       -1.8652710394
173.021627703       -2.12800867367
173.521690211       -2.38327667657
174.021752719       -2.6276781175
174.521815227       -2.85725470098
175.021877735       -3.0676276178
175.521940243       -3.25423687703
176.02200275       -3.41267001855
176.522065258       -3.53904968944
177.022127766       -3.63042848515
177.522190274       -3.68512629038
178.022252782       -3.70294708849
178.522315289       -3.68523148103
179.022377797       -3.63473385277
179.522440305       -3.55534928708
180.022502813       -3.45174344794
180.522565321       -3.32895077999
181.022627828       -3.19200128632
181.522690336       -3.04561866554
182.022752844       -2.89401040509
182.522815352       -2.74075044515
183.02287786       -2.58874124741
183.522940368       -2.44023538251
184.023002875       -2.29689580336
184.523065383       -2.15987666328
185.023127891       -2.02991084654
185.523190399       -1.90739485811
186.023252907       -1.79246556291
186.523315414       -1.68506617051
187.023377922       -1.58500083577
187.52344043       -1.49197844902
188.023502938       -1.40564682146
188.523565446       -1.3256187187
189.023627953       -1.25149120684
189.523690461       -1.1828596565
190.023752969       -1.11932757286
190.523815477       -1.06051322668
191.023877985       -1.00605387687
191.523940493       -0.955608211946
192.024003       -0.908857498881
192.524065508       -0.865505814174
193.024128016       -0.825279640814
193.524190524       -0.787927042968
194.024253032       -0.753216574592
194.524315539       -0.720936035498
195.024378047       -0.690891156068
195.524440555       -0.662904267549
196.024503063       -0.6368129968
196.524565571       -0.612469011104
197.024628079       -0.589736828967
197.524690586       -0.568492705879
198.024753094       -0.548623599081
198.524815602       -0.530026211963
199.02487811       -0.512606116391
199.524940618       -0.496276949773
200.025003125       -0.480959682733
200.525065633       -0.466581952758
201.025128141       -0.453077458977
201.525190649       -0.440385413224
202.025253157       -0.42845004264
202.525315664       -0.417220139304
203.025378172       -0.406648652641
203.52544068       -0.396692320637
204.025503188       -0.387311336208
204.525565696       -0.378469045365
205.025628204       -0.370131674099
205.525690711       -0.362268081215
206.025753219       -0.354849534566
206.525815727       -0.34784950842
207.025878235       -0.341243499884
207.525940743       -0.335008862534
208.02600325       -0.329124655574
208.526065758       -0.323571507023
209.026128266       -0.318331489576
209.526190774       -0.313388007934
210.026253282       -0.3087256965
210.526315789       -0.304330326489
211.026378297       -0.30018872155
211.526440805       -0.296288681136
212.026503313       -0.292618910917
212.526565821       -0.289168959589
213.026628329       -0.285929161549
213.526690836       -0.282890584904
214.026753344       -0.280044984375
214.526815852       -0.277384758702
215.02687836       -0.274902912186
215.526940868       -0.272593020052
216.027003375       -0.270449197356
216.527065883       -0.268466071187
217.027128391       -0.266638755953
217.527190899       -0.264962831554
218.027253407       -0.26343432429
218.527315914       -0.26204969036
219.027378422       -0.260805801846
219.52744093       -0.259699935082
220.027503438       -0.258729761343
220.527565946       -0.257893339803
221.027628454       -0.257189112731
221.527690961       -0.256615902918
222.027753469       -0.256172913342
222.527815977       -0.255859729102
223.027878485       -0.25567632168
223.527940993       -0.255623055594
224.0280035       -0.255700697545
224.528066008       -0.255910428174
225.028128516       -0.256253856583
225.528191024       -0.256733037782
226.028253532       -0.257350493273
226.52831604       -0.258109235002
227.028378547       -0.259012792948
227.528441055       -0.260065246649
228.028503563       -0.261271261022
228.528566071       -0.26263612685
229.028628579       -0.264165806378
229.528691086       -0.2658669845
230.028753594       -0.267747126068
230.528816102       -0.269814539905
231.02887861       -0.272078450171
231.528941118       -0.27454907577
232.029003625       -0.277237718541
232.529066133       -0.280156861023
233.029128641       -0.283320274601
233.529191149       -0.286743138882
234.029253657       -0.290442173086
234.529316165       -0.294435780243
235.029378672       -0.298744204791
235.52944118       -0.303389704046
236.029503688       -0.308396733631
236.529566196       -0.313792146494
237.029628704       -0.319605404452
237.529691211       -0.325868800156
238.029753719       -0.332617686001
238.529816227       -0.339890704542
239.029878735       -0.347730012324
239.529941243       -0.356181485456
240.03000375       -0.365294890463
240.530066258       -0.375123997592
241.030128766       -0.385726605434
241.530191274       -0.397164434927
242.030253782       -0.40950283706
242.53031629       -0.422810241247
243.030378797       -0.437157250132
243.530441305       -0.452615261134
244.030503813       -0.469254465983
244.530566321       -0.487141048049
245.030628829       -0.506333366867
245.530691336       -0.52687689561
246.030753844       -0.548797670458
246.530816352       -0.572094036155
247.03087886       -0.596726551425
247.530941368       -0.622606080072
248.031003875       -0.649580371172
248.531066383       -0.677419854664
249.031128891       -0.705803958707
249.531191399       -0.734309963201
250.031253907       -0.762407138607
250.531316415       -0.789459479909
251.031378922       -0.814740428174
251.53144143       -0.837462220025
252.031503938       -0.856820639719
252.531566446       -0.872052969654
253.031628954       -0.882503317552
253.531691461       -0.887686236906
254.031753969       -0.887337923618
254.531816477       -0.881445282036
255.031878985       -0.870246972592
255.531941493       -0.854206220414
256.032004001       -0.833960902512
256.532066508       -0.810260430975
257.032129016       -0.78390017294
257.532191524       -0.755662680367
258.032254032       -0.726271816399
258.53231654       -0.696362234178
259.032379047       -0.66646361576
259.532441555       -0.636997126962
260.032504063       -0.608280717745
260.532566571       -0.580539931457
261.032629079       -0.553921423332
261.532691586       -0.528507118803
262.032754094       -0.504327656556
262.532816602       -0.481374352389
263.03287911       -0.459609354086
263.532941618       -0.438973944882
