#  x                 y             frequency           rot. str.
0.0      0.200232989995      34.22      8.04
0.500062507813      0.209513962104      51.23      14.65
1.00012501563      0.219261150676      53.88      -12.51
1.50018752344      0.229502354585      71.90      -24.96
2.00025003125      0.240267338476      169.75      -12.87
2.50031253907      0.251587994423      201.39      -10.93
3.00037504688      0.26349851868      277.96      75.52
3.50043755469      0.276035605091      307.97      -2.49
4.00050006251      0.289238656895      339.48      1.85
4.50056257032      0.303150018837      346.06      7.47
5.00062507813      0.31781523175      353.54      -12.35
5.50068758595      0.333283311964      420.67      12.07
6.00075009376      0.3496070582      424.84      0.60
6.50081260158      0.36684338888      433.13      2.76
7.00087510939      0.385053713117      493.22      2.49
7.5009376172      0.404304339011      531.34      -37.82
8.00100012502      0.424666923249      541.26      -13.00
8.50106263283      0.446218966475      617.58      2.67
9.00112514064      0.469044359332      659.87      -1.07
9.50118764846      0.493233984602      721.19      64.28
10.0012501563      0.518886381409      738.17      1.15
10.5013126641      0.546108478028      786.89      8.13
11.0013751719      0.575016400445      815.08      -37.34
11.5014376797      0.605736364419      840.41      -51.25
12.0015001875      0.638405659396      849.32      -122.28
12.5015626953      0.673173733214      859.67      85.05
13.0016252032      0.710203387004      879.57      -40.01
13.501687711      0.749672090047      885.14      81.66
14.0017502188      0.791773424495      926.16      67.02
14.5018127266      0.836718669651      931.74      17.04
15.0018752344      0.884738534804      966.61      0.50
15.5019377422      0.936085048255      1033.95      -43.13
16.00200025      0.991033607751      1037.03      -60.43
16.5020627578      1.04988519382      1112.21      -11.45
17.0021252657      1.11296874179      1118.01      7.99
17.5021877735      1.18064366021      1145.56      2.14
18.0022502813      1.2533024713      1189.32      46.52
18.5023127891      1.3313735332      1198.57      1.55
19.0023752969      1.41532378053      1210.49      -52.35
19.5024378047      1.5056613893      1233.93      2.15
20.0025003125      1.60293823026      1249.85      7.68
20.5025628204      1.70775191899      1289.82      2.66
21.0026253282      1.82074719722      1294.30      -11.87
21.502687836      1.94261628298      1340.49      0.07
22.0027503438      2.07409770229      1364.20      -14.37
22.5028128516      2.21597295493      1368.61      -21.17
23.0028753594      2.36906016731      1396.67      -59.62
23.5029378672      2.53420363918      1409.27      87.28
24.003000375      2.71225789963      1473.71      -4.21
24.5030628829      2.90406455411      1492.15      -2.73
25.0031253907      3.11041984851      1552.12      2.69
25.5031878985      3.33203053571      1633.59      9.44
26.0032504063      3.5694553774      1658.61      23.40
26.5033129141      3.82302956539      1662.10      -21.08
27.0033754219      4.09276968582      1834.90      27.49
27.5034379297      4.37825783101      3029.51      9.45
28.0035004376      4.67850541959      3045.73      -13.00
28.5035629454      4.99180058881      3098.53      7.88
29.0036254532      5.31554799762      3150.55      5.02
29.503687961      5.64611662744      3161.32      -2.24
30.0037504688      5.97871928803      3168.15      4.38
30.5038129766      6.30735577693      3196.14      -1.00
31.0038754844      6.62485760039      3450.99      33.33
31.5039379922      6.92307229447      3493.21      5.94
32.0040005001      7.19321565464      3575.86      -6.09
32.5040630079      7.42639764986      3799.14      5.29
33.0041255157       7.61429293976
33.5041880235       7.74988574484
34.0042505313       7.8281831268
34.5043130391       7.84677494489
35.0043755469       7.80613364542
35.5044380548       7.70959318591
36.0045005626       7.56301165502
36.5045630704       7.37418588788
37.0046255782       7.15212864257
37.504688086       6.90632920585
38.0047505938       6.64609888245
38.5048131016       6.38006539526
39.0048756095       6.11583915973
39.5049381173       5.85984078495
40.0050006251       5.61725816999
40.5050631329       5.39209306715
41.0051256407       5.18725776172
41.5051881485       5.00468855107
42.0052506563       4.84545062629
42.5053131641       4.70981661148
43.005375672       4.59730742302
43.5054381798       4.50668917818
44.0055006876       4.43592408037
44.5055631954       4.38207732094
45.0056257032       4.34118698797
45.505688211       4.30811067069
46.0057507188       4.27637157565
46.5058132267       4.23803864608
47.0058757345       4.18368843787
47.5059382423       4.10250868642
48.0060007501       3.9826097233
48.5060632579       3.81160319945
49.0061257657       3.57748028837
49.5061882735       3.26976858018
50.0062507813       2.88087043641
50.5063132892       2.40739957745
51.006375797       1.8512634611
51.5064383048       1.22021909646
52.0065008126       0.527684634079
52.5065633204       -0.208278875343
53.0066258282       -0.966719937778
53.506688336       -1.72601051203
54.0067508439       -2.46613400586
54.5068133517       -3.17064730305
55.0068758595       -3.82800883943
55.5069383673       -4.43212764704
56.0070008751       -4.98216651985
56.5070633829       -5.48177257802
57.0071258907       -5.93797888641
57.5071883985       -6.36001891408
58.0072509064       -6.75824190546
58.5073134142       -7.14324126664
59.007375922       -7.52523567734
59.5074384298       -7.91368897043
60.0075009376       -8.31712399639
60.5075634454       -8.74307436674
61.0076259532       -9.1981196792
61.5076884611       -9.68795817796
62.0077509689       -10.2174810496
62.5078134767       -10.7908219104
63.0078759845       -11.4113623323
63.5079384923       -12.081679397
64.0080010001       -12.8034248493
64.5080635079       -13.5771283675
65.0081260158       -14.4019209871
65.5081885236       -15.2751801194
66.0082510314       -16.1921063517
66.5083135392       -17.1452555888
67.008376047       -18.1240688844
67.5084385548       -19.1144660028
68.0085010626       -20.0985945612
68.5085635704       -21.0548484142
69.0086260783       -21.9582768892
69.5086885861       -22.7814881786
70.0087510939       -23.4960945737
70.5088136017       -24.0746511785
71.0088761095       -24.4929153926
71.5089386173       -24.7321326302
72.0090011251       -24.7809781727
72.509063633       -24.6367957284
73.0091261408       -24.3058848856
73.5091886486       -23.8027779613
74.0092511564       -23.1486542342
74.5093136642       -22.3691999462
75.009376172       -21.4922906594
75.5094386798       -20.5458419047
76.0095011876       -19.556072756
76.5095636955       -18.5462992257
77.0096262033       -17.5362597721
77.5096887111       -16.5418964743
78.0097512189       -15.5754772627
78.5098137267       -14.6459395059
79.0098762345       -13.7593509151
79.5099387423       -12.919408559
80.0100012502       -12.1279225094
80.510063758       -11.3852526723
81.0101262658       -10.6906839926
81.5101887736       -10.0427365062
82.0102512814       -9.4394135829
82.5103137892       -8.87839530053
83.010376297       -8.35718529244
83.5104388049       -7.87321946181
84.0105013127       -7.42394426874
84.5105638205       -7.00687127369
85.0106263283       -6.61961351233
85.5106888361       -6.25990821982
86.0107513439       -5.92562948567
86.5108138517       -5.61479362643
87.0108763595       -5.32555941226
87.5109388674       -5.05622476197
88.0110013752       -4.80522111047
88.511063883       -4.57110633469
89.0111263908       -4.35255688034
89.5111888986       -4.14835954736
90.0112514064       -3.95740325383
90.5113139142       -3.77867099489
91.0113764221       -3.61123213838
91.5114389299       -3.45423514339
92.0115014377       -3.306900749
92.5115639455       -3.16851565242
93.0116264533       -3.03842667666
93.5116889611       -2.91603541489
94.0117514689       -2.80079333028
94.5118139767       -2.69219728523
95.0118764846       -2.58978547108
95.5119389924       -2.4931337085
96.0120015002       -2.40185208891
96.512064008       -2.31558192807
97.0121265158       -2.2339930045
97.5121890236       -2.15678105693
98.0122515314       -2.08366551677
98.5123140393       -2.01438745364
99.0123765471       -1.94870771351
99.5124390549       -1.88640523114
100.012501563       -1.82727549973
100.512564071       -1.77112918276
101.012626578       -1.71779085404
101.512689086       -1.66709785364
102.012751594       -1.6188992482
102.512814102       -1.57305488584
103.01287661       -1.52943453617
103.512939117       -1.48791710751
104.013001625       -1.44838993363
104.513064133       -1.41074812367
105.013126641       -1.37489396902
105.513189149       -1.34073640187
106.013251656       -1.3081905007
106.513314164       -1.27717703813
107.013376672       -1.24762206743
107.51343918       -1.21945654407
108.013501688       -1.1926159791
108.513564196       -1.16704012162
109.013626703       -1.14267266757
109.513689211       -1.11946099271
110.013751719       -1.09735590756
110.513814227       -1.07631143247
111.013876735       -1.05628459106
111.513939242       -1.03723522051
112.01400175       -1.01912579728
112.514064258       -1.00192127709
113.014126766       -0.985588947814
113.514189274       -0.970098294494
114.014251781       -0.955420875361
114.514314289       -0.941530208103
115.014376797       -0.928401665594
115.514439305       -0.91601238039
116.014501813       -0.904341157386
116.514564321       -0.893368394047
117.014626828       -0.883076007732
117.514689336       -0.87344736964
118.014751844       -0.864467244982
118.514814352       -0.85612173901
119.01487686       -0.848398248574
119.514939367       -0.841285418935
120.015001875       -0.834773105571
120.515064383       -0.828852340764
121.015126891       -0.823515304774
121.515189399       -0.81875530145
122.015251906       -0.814566738141
122.515314414       -0.810945109806
123.015376922       -0.807886987247
123.51543943       -0.805390009411
124.015501938       -0.803452879738
124.515564446       -0.802075366547
125.015626953       -0.801258307495
125.515689461       -0.801003618147
126.015751969       -0.801314304742
126.515814477       -0.802194481253
127.015876985       -0.803649390871
127.515939492       -0.805685432082
128.016002       -0.808310189515
128.516064508       -0.811532469801
129.016127016       -0.815362342686
129.516189524       -0.819811187715
130.016252032       -0.824891746808
130.516314539       -0.830618183122
131.016377047       -0.837006146627
131.516439555       -0.84407284688
132.016502063       -0.851837133541
132.516564571       -0.860319585233
133.016627078       -0.869542607419
133.516689586       -0.879530540067
134.016752094       -0.890309775901
134.516814602       -0.901908890222
135.01687711       -0.914358783278
135.516939617       -0.927692836388
136.017002125       -0.941947083057
136.517064633       -0.957160396532
137.017127141       -0.97337469537
137.517189649       -0.990635168772
138.017252157       -1.00899052366
138.517314664       -1.02849325562
139.017377172       -1.04919994625
139.51743968       -1.07117158939
140.017502188       -1.09447394949
140.517564696       -1.11917795521
141.017627203       -1.14536013216
141.517689711       -1.17310307868
142.017752219       -1.20249598948
142.517814727       -1.23363523202
143.017877235       -1.26662498141
143.517939742       -1.30157792004
144.01800225       -1.33861600893
144.518064758       -1.37787133837
145.018127266       -1.41948706645
145.518189774       -1.46361845477
146.018252282       -1.51043401145
146.518314789       -1.56011675271
147.018377297       -1.61286559508
147.518439805       -1.66889689134
148.018502313       -1.72844612393
148.518564821       -1.7917697708
149.018627328       -1.85914735859
149.518689836       -1.93088371875
150.018752344       -2.00731146147
150.518814852       -2.08879368138
151.01887736       -2.17572690661
151.518939867       -2.26854429897
152.019002375       -2.36771910708
152.519064883       -2.47376836504
153.019127391       -2.58725681631
153.519189899       -2.70880102348
154.019252407       -2.83907359876
154.519314914       -2.97880745348
155.019377422       -3.12879991617
155.51943993       -3.2899165016
156.019502438       -3.46309402507
156.519564946       -3.64934263787
157.019627453       -3.84974620625
157.519689961       -4.06546025672
158.019752469       -4.29770645614
158.519814977       -4.54776227599
159.019877485       -4.816944099
159.519939992       -5.10658156008
160.0200025       -5.41798038128
160.520065008       -5.75237039049
161.020127516       -6.11083486632
161.520190024       -6.49421694029
162.020252532       -6.90299869835
162.520315039       -7.33714914429
163.020377547       -7.79593872506
163.520440055       -8.27772120052
164.020502563       -8.77968886255
164.520565071       -9.29761499811
165.020627578       -9.82560822153
165.520690086       -10.3559162616
166.020752594       -10.8788300168
166.520815102       -11.3827483937
167.02087761       -11.8544649807
167.520940118       -12.2797225265
168.021002625       -12.6440456838
168.521065133       -12.9338071295
169.021127641       -13.1374163397
169.521190149       -13.2464626559
170.021252657       -13.2566179251
170.521315164       -13.1681264783
171.021377672       -12.9857829813
171.52144018       -12.7184027991
172.021502688       -12.3778921332
172.521565196       -11.9780941517
173.021627703       -11.5336053308
173.521690211       -11.0587263792
174.021752719       -10.5666528896
174.521815227       -10.0689453088
175.021877735       -9.57526392719
175.521940243       -9.09332089474
176.02200275       -8.62898774613
176.522065258       -8.18649848465
177.022127766       -7.76869847268
177.522190274       -7.37730270154
178.022252782       -7.01313983842
178.522315289       -6.67636894832
179.022377797       -6.36666343769
179.522440305       -6.08336178598
180.022502813       -5.82558756006
180.522565321       -5.59234263915
181.022627828       -5.38257803308
181.522690336       -5.19524655022
182.022752844       -5.0293411418
182.522815352       -4.88392219512
183.02287786       -4.75813647654
183.522940368       -4.65122989309
184.023002875       -4.56255577496
184.523065383       -4.49157998566
185.023127891       -4.43788383929
185.523190399       -4.40116553442
186.023252907       -4.38124059096
186.523315414       -4.37804158718
187.023377922       -4.39161732698
187.52344043       -4.42213141108
188.023502938       -4.46986002792
188.523565446       -4.53518861083
189.023627953       -4.61860681421
189.523690461       -4.72070103419
190.023752969       -4.842143425
190.523815477       -4.98367603516
191.023877985       -5.14608829928
191.523940493       -5.33018567777
192.024003       -5.53674675348
192.524065508       -5.76646561519
193.024128016       -6.01987596306
193.524190524       -6.29725320073
194.024253032       -6.59849105031
194.524315539       -6.92295025717
195.024378047       -7.26927916417
195.524440555       -7.63520982647
196.024503063       -8.01733939016
196.524565571       -8.41091493077
197.024628079       -8.80965054819
197.524690586       -9.20561693573
198.024753094       -9.58925311109
198.524815602       -9.9495531129
199.02487811       -10.2744717806
199.524940618       -10.5515685064
200.025003125       -10.7688649888
200.525065633       -10.9158382605
201.025128141       -10.9844175099
201.525190649       -10.9698217469
202.025253157       -10.871082348
202.525315664       -10.6911455807
203.025378172       -10.4365338369
203.52544068       -10.1166347806
204.025503188       -9.74275610596
204.525565696       -9.3271111225
205.025628204       -8.88188493297
205.525690711       -8.41848551055
206.025753219       -7.94702796751
206.525815727       -7.47605077285
207.025878235       -7.01242913739
207.525940743       -6.56143494631
208.02600325       -6.12689100377
208.526065758       -5.71137454026
209.026128266       -5.31643590261
209.526190774       -4.94280956472
210.026253282       -4.59060413255
210.526315789       -4.25946517141
211.026378297       -3.9487095142
211.526440805       -3.65743262829
212.026503313       -3.38459213322
212.526565821       -3.12907113581
213.026628329       -2.88972504895
213.526690836       -2.66541524787
214.026753344       -2.45503246571
214.526815852       -2.25751234492
215.02687836       -2.07184510014
215.526940868       -1.89708084111
216.027003375       -1.73233175996
216.527065883       -1.57677210497
217.027128391       -1.42963663744
217.527190899       -1.29021809073
218.027253407       -1.15786401301
218.527315914       -1.0319732705
219.027378422       -0.911992407783
219.52744093       -0.797412002598
220.027503438       -0.687763107956
220.527565946       -0.582613841933
221.027628454       -0.481566161897
221.527690961       -0.384252842915
222.027753469       -0.290334668161
222.527815977       -0.199497830848
223.027878485       -0.111451541666
223.527940993       -0.0259258321338
224.0280035       0.0573304578884
224.528066008       0.138551521402
225.028128516       0.217956267509
225.528191024       0.295749859927
226.028253532       0.372125123666
226.52831604       0.447263832135
227.028378547       0.521337886272
227.528441055       0.594510396516
228.028503563       0.666936677653
228.528566071       0.738765165825
229.028628579       0.810138266234
229.528691086       0.881193139396
230.028753594       0.952062433156
230.528816102       1.02287496709
231.02887861       1.0937563754
231.528941118       1.16482971388
232.029003625       1.23621603624
232.529066133       1.30803494451
233.029128641       1.38040511809
233.529191149       1.45344482569
234.029253657       1.52727242407
234.529316165       1.60200684756
235.029378672       1.67776809179
235.52944118       1.75467769535
236.029503688       1.8328592228
236.529566196       1.91243875245
237.029628704       1.99354537228
237.529691211       2.07631168764
238.029753719       2.16087434398
238.529816227       2.24737456847
239.029878735       2.33595873415
239.529941243       2.42677895055
240.03000375       2.51999368499
240.530066258       2.61576841883
241.030128766       2.71427634359
241.530191274       2.81569910178
242.030253782       2.92022757805
242.53031629       3.02806274654
243.030378797       3.13941658084
243.530441305       3.2545130337
244.030503813       3.37358909409
244.530566321       3.49689593022
245.030628829       3.6247001277
245.530691336       3.75728503323
246.030753844       3.89495221506
246.530816352       4.03802305297
247.03087886       4.18684047136
247.530941368       4.34177083107
248.031003875       4.50320599697
248.531066383       4.67156560013
249.031128891       4.84729951563
249.531191399       5.03089057951
250.031253907       5.22285757042
250.531316415       5.42375848506
251.031378922       5.63419413912
251.53144143       5.85481212907
252.031503938       6.08631119416
252.531566446       6.32944602174
253.031628954       6.58503254387
253.531691461       6.85395377789
254.031753969       7.13716626866
254.531816477       7.43570719589
255.031878985       7.75070221514
255.531941493       8.08337410696
256.032004001       8.43505231361
256.532066508       8.80718344789
257.032129016       9.20134286197
257.532191524       9.61924736609
258.032254032       10.0627691865
258.53231654       10.5339512472
259.032379047       11.0350238487
259.532441555       11.568422801
260.032504063       12.1368090349
260.532566571       12.7430896723
261.032629079       13.390440469
261.532691586       14.0823294475
262.032754094       14.8225414012
262.532816602       15.6152027674
263.03287911       16.4648061056
263.532941618       17.3762330748
264.033004126       18.3547743359
264.533066633       19.4061441833
265.033129141       20.5364869021
265.533191649       21.7523707808
