#  x                 y             frequency           rot. str.
0.0      -5.71014152579      14.05      -24.18
0.500062507813      -6.03830049752      51.78      -6.89
1.00012501563      -6.39127916866      71.44      23.90
1.50018752344      -6.77114833705      84.68      7.60
2.00025003125      -7.18010960188      177.62      2.94
2.50031253907      -7.62048199799      219.58      -32.48
3.00037504688      -8.09467848859      312.31      66.76
3.50043755469      -8.60516874283      318.35      -9.83
4.00050006251      -9.15442370125      332.67      -0.71
4.50056257032      -9.74483639719      342.80      13.54
5.00062507813      -10.3786124294      366.36      0.43
5.50068758595      -11.057622515      380.28      1.72
6.00075009376      -11.783208947      421.88      11.24
6.50081260158      -12.5559379548      428.00      5.84
7.00087510939      -13.3752915325      511.98      -27.92
7.5009376172      -14.239296111      529.79      13.98
8.00100012502      -15.144092564      549.94      -36.10
8.50106263283      -16.083463566      591.48      2.22
9.00112514064      -17.048351086      660.08      1.52
9.50118764846      -18.0264187202      727.07      56.98
10.0012501563      -19.0017386853      740.90      2.51
10.5013126641      -19.9547067717      790.35      -13.89
11.0013751719      -20.8623019381      807.02      56.32
11.5014376797      -21.6987990044      822.78      -20.99
12.0015001875      -22.4370013824      834.74      -125.55
12.5015626953      -23.049979728      846.41      -17.32
13.0016252032      -23.5131882828      867.80      -7.75
13.501687711      -23.8067077544      880.73      126.92
14.0017502188      -23.9172715813      942.05      -6.01
14.5018127266      -23.8397134612      951.52      -9.25
15.0018752344      -23.5775520843      964.60      5.25
15.5019377422      -23.1425929286      1036.68      -0.20
16.00200025      -22.553629275      1051.13      -62.70
16.5020627578      -21.8345005313      1096.24      15.25
17.0021252657      -21.0118626901      1132.72      10.07
17.5021877735      -20.113024551      1168.50      -9.95
18.0022502813      -19.1641224072      1187.67      2.13
18.5023127891      -18.1887855258      1199.67      -61.94
19.0023752969      -17.2073264735      1202.62      7.07
19.5024378047      -16.236401893      1207.64      -1.26
20.0025003125      -15.289040379      1231.07      1.30
20.5025628204      -14.374920293      1287.48      19.33
21.0026253282      -13.5007905274      1315.06      22.03
21.502687836      -12.6709495288      1352.37      0.06
22.0027503438      -11.8877231807      1358.84      -16.03
22.5028128516      -11.1519049033      1368.38      27.29
23.0028753594      -10.4631391445      1392.19      -174.34
23.5029378672      -9.82024192479      1408.27      204.44
24.003000375      -9.22145998207      1475.84      4.02
24.5030628829      -8.66467442232      1483.22      11.69
25.0031253907      -8.14755671201      1551.50      -25.37
25.5031878985      -7.66768523252      1635.03      -6.85
26.0032504063      -7.22263012662      1658.24      8.42
26.5033129141      -6.81001324649      1659.90      -4.57
27.0033754219      -6.42754894651      1834.10      36.04
27.5034379297      -6.07307041518      3034.90      -6.36
28.0035004376      -5.74454529246      3041.02      9.94
28.5035629454      -5.44008350583      3083.22      -2.04
29.0036254532      -5.15793958537      3152.07      3.02
29.503687961      -4.89651117559      3153.77      0.14
30.0037504688      -4.65433503251      3194.69      1.19
30.5038129766      -4.43008146053      3209.17      0.66
31.0038754844      -4.22254788675      3481.54      -26.83
31.5039379922      -4.03065207524      3492.64      55.49
32.0040005001      -3.85342533656      3571.44      -6.72
32.5040630079      -3.69000597763      3798.77      -6.11
33.0041255157       -3.53963315533
33.5041880235       -3.40164123601
34.0042505313       -3.27545471763
34.5043130391       -3.16058373608
35.0043755469       -3.0566201496
35.5044380548       -2.96323417075
36.0045005626       -2.88017149237
36.5045630704       -2.80725082954
37.0046255782       -2.74436176979
37.504688086       -2.69146278815
38.0047505938       -2.64857923636
38.5048131016       -2.61580105472
39.0048756095       -2.59327987525
39.5049381173       -2.58122508173
40.0050006251       -2.57989826013
40.5050631329       -2.58960530685
41.0051256407       -2.61068525732
41.5051881485       -2.64349465296
42.0052506563       -2.68838598313
42.5053131641       -2.74567843512
43.005375672       -2.81561889021
43.5054381798       -2.89833087379
44.0055006876       -2.99374909956
44.5055631954       -3.10153748942
45.0056257032       -3.22098931431
45.505688211       -3.35090966394
46.0057507188       -3.489483134
46.5058132267       -3.63413370592
47.0058757345       -3.78138940747
47.5059382423       -3.92677120277
48.0060007501       -4.06473269457
48.5060632579       -4.18868269348
49.0061257657       -4.29112357526
49.5061882735       -4.36393114986
50.0062507813       -4.39878377951
50.5063132892       -4.38771967432
51.006375797       -4.32376620997
51.5064383048       -4.20155336154
52.0065008126       -4.01780726882
52.5065633204       -3.77162945914
53.0066258282       -3.46450406431
53.506688336       -3.10003026554
54.0067508439       -2.68343299143
54.5068133517       -2.22094397808
55.0068758595       -1.71915749965
55.5069383673       -1.18445111357
56.0070008751       -0.622531013516
56.5070633829       -0.0381264155275
57.0071258907       0.565172163377
57.5071883985       1.18495478875
58.0072509064       1.81994613581
58.5073134142       2.4699031277
59.007375922       3.13548214004
59.5074384298       3.81809422022
60.0075009376       4.51975928669
60.5075634454       5.24296385078
61.0076259532       5.99052176413
61.5076884611       6.76543375044
62.0077509689       7.57073878642
62.5078134767       8.40934851878
63.0078759845       9.28385472521
63.5079384923       10.1962994136
64.0080010001       11.1478978052
64.5080635079       12.138706723
65.0081260158       13.1672356493
65.5081885236       14.2300059516
66.0082510314       15.3210765867
66.5083135392       16.4315726218
67.008376047       17.5492757444
67.5084385548       18.6583610713
68.0085010626       19.7393864134
68.5085635704       20.7696495388
69.0086260783       21.7240141343
69.5086885861       22.5762551995
70.0087510939       23.3008856621
70.5088136017       23.8753083309
71.0088761095       24.2820190331
71.5089386173       24.5105092847
72.0090011251       24.55851944
72.509063633       24.4323926519
73.0091261408       24.1464560035
73.5091886486       23.7215546177
74.0092511564       23.1830235473
74.5093136642       22.5584551051
75.009376172       21.8755965789
75.5094386798       21.1606198645
76.0095011876       20.4368823918
76.5095636955       19.7241867034
77.0096262033       19.0384675077
77.5096887111       18.3917958955
78.0097512189       17.7925844118
78.5098137267       17.245892471
79.0098762345       16.7537582746
79.5099387423       16.3155130191
80.0100012502       15.928061182
80.510063758       15.5861347732
81.0101262658       15.2825483409
81.5101887736       15.0084936687
82.0102512814       14.7539161811
82.5103137892       14.5080063141
83.010376297       14.2598167784
83.5104388049       13.9989821941
84.0105013127       13.7164776468
84.5105638205       13.4053190928
85.0106263283       13.0610949787
85.5106888361       12.6822345219
86.0107513439       12.2699633036
86.5108138517       11.8279586589
87.0108763595       11.3617759654
87.5109388674       10.8781539816
88.0110013752       10.3843140297
88.511063883       9.88734720516
89.0111263908       9.39374750062
89.5111888986       8.90911024599
90.0112514064       8.43798460722
90.5113139142       7.98385041013
91.0113764221       7.54918276276
91.5114389299       7.13556963936
92.0115014377       6.74385395262
92.5115639455       6.3742795448
93.0116264533       6.02662796316
93.5116889611       5.70033888229
94.0117514689       5.39461134997
94.5118139767       5.10848582963
95.0118764846       4.84090861707
95.5119389924       4.59078097221
96.0120015002       4.35699552405
96.512064008       4.13846240542
97.0121265158       3.93412730908
97.5121890236       3.74298332836
98.0122515314       3.56407811281
98.5123140393       3.39651756425
99.0123765471       3.23946703334
99.5124390549       3.09215075669
100.012501563       2.95385009561
100.512564071       2.82390099586
101.012626578       2.70169097724
101.512689086       2.58665587692
102.012751594       2.47827650561
102.512814102       2.37607532732
103.01287661       2.27961323717
103.512939117       2.18848648534
104.013001625       2.10232377586
104.513064133       2.02078355501
105.013126641       1.94355149472
105.513189149       1.8703381692
106.013251656       1.80087691894
106.513314164       1.73492189317
107.013376672       1.67224626013
107.51343918       1.61264057398
108.013501688       1.5559112865
108.513564196       1.50187939206
109.013626703       1.45037919487
109.513689211       1.40125718772
110.013751719       1.35437103254
110.513814227       1.30958863325
111.013876735       1.26678729265
111.513939242       1.22585294542
112.01400175       1.1866794601
112.514064258       1.14916800354
113.014126766       1.11322646198
113.514189274       1.07876891333
114.014251781       1.04571514587
114.514314289       1.01399021895
115.014376797       0.983524061828
115.514439305       0.954251106891
116.014501813       0.926109954313
116.514564321       0.899043065008
117.014626828       0.872996479405
117.514689336       0.847919559622
118.014751844       0.823764752952
118.514814352       0.800487374699
119.01487686       0.778045408674
119.514939367       0.756399323755
120.015001875       0.735511905109
120.515064383       0.715348098802
121.015126891       0.695874868643
121.515189399       0.677061064203
122.015251906       0.658877299081
122.515314414       0.641295838554
123.015376922       0.624290495832
123.51543943       0.607836536218
124.015501938       0.59191058854
124.515564446       0.576490563263
125.015626953       0.561555576773
125.515689461       0.547085881351
126.015751969       0.533062800391
126.515814477       0.519468668498
127.015876985       0.50628677608
127.515939492       0.493501318135
128.016002       0.481097346923
128.516064508       0.469060728268
129.016127016       0.457378101252
129.516189524       0.446036841073
130.016252032       0.43502502488
130.516314539       0.424331400412
131.016377047       0.413945357276
131.516439555       0.403856900733
132.016502063       0.394056627858
132.516564571       0.384535705973
133.016627078       0.375285853262
133.516689586       0.366299321467
134.016752094       0.357568880631
134.516814602       0.349087805796
135.01687711       0.340849865642
135.516939617       0.332849313022
136.017002125       0.32508087738
136.517064633       0.317539759038
137.017127141       0.310221625371
137.517189649       0.30312260888
138.017252157       0.296239307191
138.517314664       0.289568785036
139.017377172       0.283108578263
139.51743968       0.276856699962
140.017502188       0.27081164878
140.517564696       0.264972419549
141.017627203       0.259338516341
141.517689711       0.253909968094
142.017752219       0.248687346987
142.517814727       0.243671789734
143.017877235       0.238865022037
143.517939742       0.234269386415
144.01800225       0.229887873708
144.518064758       0.225724158544
145.018127266       0.221782639139
145.518189774       0.218068481792
146.018252282       0.214587670537
146.518314789       0.211347062425
147.018377297       0.208354448981
147.518439805       0.205618624456
148.018502313       0.203149461549
148.518564821       0.200957995347
149.018627328       0.19905651636
149.518689836       0.197458673562
150.018752344       0.196179588514
150.518814852       0.19523598173
151.01887736       0.194646312592
151.518939867       0.194430934259
152.019002375       0.194612265168
152.519064883       0.195214978909
153.019127391       0.196266214431
153.519189899       0.197795808719
154.019252407       0.199836554322
154.519314914       0.202424484288
155.019377422       0.205599187313
155.51943993       0.209404156086
156.019502438       0.213887172037
156.519564946       0.219100729833
157.019627453       0.225102505071
157.519689961       0.231955868634
158.019752469       0.239730451043
158.519814977       0.248502759827
159.019877485       0.258356852316
159.519939992       0.269385065283
160.0200025       0.281688801297
160.520065008       0.29537936939
161.020127516       0.310578874303
161.520190024       0.327421143911
162.020252532       0.346052677912
162.520315039       0.36663359188
163.020377547       0.389338518615
163.520440055       0.414357412294
164.020502563       0.441896179047
164.520565071       0.472177028708
165.020627578       0.505438404797
165.520690086       0.541934301133
166.020752594       0.581932711732
166.520815102       0.625712883541
167.02087761       0.673560947658
167.520940118       0.725763393918
168.021002625       0.782597728992
168.521065133       0.844319527515
169.021127641       0.91114496581
169.521190149       0.983227848141
170.021252657       1.06063014407
170.521315164       1.14328522514
171.021377672       1.23095342005
171.52144018       1.32317032654
172.021502688       1.41918966071
172.521565196       1.51792439865
173.021627703       1.61789257312
173.521690211       1.71717712376
174.021752719       1.81341211223
174.521815227       1.90380941994
175.021877735       1.98523937416
175.521940243       2.05437415266
176.02200275       2.10789343474
176.522065258       2.14273819539
177.022127766       2.15638350674
177.522190274       2.14708941027
178.022252782       2.11408555036
178.522315289       2.05765356336
179.022377797       1.97909030807
179.522440305       1.88055950232
180.022502813       1.76486137629
180.522565321       1.63516285046
181.022627828       1.4947317467
181.522690336       1.34670946656
182.022752844       1.19394216922
182.522815352       1.03887588892
183.02287786       0.883509830629
183.522940368       0.729395656897
184.023002875       0.577668529538
184.523065383       0.429096684593
185.023127891       0.284138940706
185.523190399       0.143002616544
186.023252907       0.005697148787
186.523315414       -0.12791906772
187.023377922       -0.258099515969
187.52344043       -0.38517795958
188.023502938       -0.509543736933
188.523565446       -0.631623013415
189.023627953       -0.751864997704
189.523690461       -0.87073218076
190.023752969       -0.988693765564
190.523815477       -1.10622158553
191.023877985       -1.22378793887
191.523940493       -1.34186488414
192.024003       -1.46092464376
192.524065508       -1.58144084762
193.024128016       -1.70389041732
193.524190524       -1.82875594708
194.024253032       -1.95652848073
194.524315539       -2.08771061806
195.024378047       -2.22281991039
195.524440555       -2.36239252584
196.024503063       -2.50698718056
196.524565571       -2.65718934501
197.024628079       -2.81361574374
197.524690586       -2.97691917531
198.024753094       -3.14779368433
198.524815602       -3.32698012243
199.02487811       -3.5152721375
199.524940618       -3.71352263198
200.025003125       -3.92265073012
200.525065633       -4.14364929058
201.025128141       -4.37759299445
201.525190649       -4.62564702671
202.025253157       -4.88907635202
202.525315664       -5.16925555914
203.025378172       -5.4676792103
203.52544068       -5.78597257874
204.025503188       -6.12590258286
204.525565696       -6.48938862366
205.025628204       -6.87851289344
205.525690711       -7.2955295375
206.025753219       -7.74287180224
206.525815727       -8.22315597633
207.025878235       -8.73918050468
207.525940743       -9.29391810581
208.02600325       -9.8904980261
208.526065758       -10.5321746966
209.026128266       -11.2222780032
209.526190774       -11.964139142
210.026253282       -12.7609846418
210.526315789       -13.6157896952
211.026378297       -14.5310806379
211.526440805       -15.5086756005
212.026503313       -16.5493525732
212.526565821       -17.6524362125
213.026628329       -18.815299805
213.526690836       -20.0327883128
214.026753344       -21.2965838558
214.526815852       -22.5945574427
215.02687836       -23.910180153
215.526940868       -25.2221006973
216.027003375       -26.5040278799
216.527065883       -27.7250746429
217.027128391       -28.8507096424
217.527190899       -29.8444069798
218.027253407       -30.6699762822
218.527315914       -31.2944023194
219.027378422       -31.6908581271
219.52744093       -31.8414314111
220.027503438       -31.7390774885
220.527565946       -31.388415745
221.027628454       -30.8052059886
221.527690961       -30.0146127436
222.027753469       -29.0486025077
222.527815977       -27.9429500374
223.027878485       -26.7343292159
223.527940993       -25.4578560569
224.0280035       -24.1452899141
224.528066008       -22.8239398709
225.028128516       -21.5162040397
225.528191024       -20.2396032924
226.028253532       -19.0071520402
226.52831604       -17.827922139
227.028378547       -16.7076858676
227.528441055       -15.649557902
228.028503563       -14.6545868285
228.528566071       -13.722270726
229.028628579       -12.8509881904
229.528691086       -12.0383468017
230.028753594       -11.2814569334
230.528816102       -10.577141411
231.02887861       -9.92209206004
231.528941118       -9.31298353182
232.029003625       -8.74655356032
232.529066133       -8.21965737154
233.029128641       -7.72930255687
233.529191149       -7.27266944615
234.029253657       -6.84712092178
234.529316165       -6.45020470905
235.029378672       -6.07965044712
235.52944118       -5.73336326663
236.029503688       -5.4094151497
236.529566196       -5.10603500244
237.029628704       -4.82159810642
237.529691211       -4.55461541843
238.029753719       -4.30372303992
238.529816227       -4.06767206907
239.029878735       -3.84531896909
239.529941243       -3.63561652897
240.03000375       -3.43760545271
240.530066258       -3.25040658426
241.030128766       -3.07321375655
241.530191274       -2.90528724026
242.030253782       -2.74594776022
242.53031629       -2.59457104282
243.030378797       -2.45058285624
243.530441305       -2.31345450466
244.030503813       -2.18269873862
244.530566321       -2.05786604556
245.030628829       -1.93854128607
245.530691336       -1.82434064424
246.030753844       -1.71490886252
246.530816352       -1.609916734
247.03087886       -1.50905882731
247.530941368       -1.41205142164
248.031003875       -1.31863063135
248.531066383       -1.22855070157
249.031128891       -1.14158245803
249.531191399       -1.05751189605
250.031253907       -0.976138894883
250.531316415       -0.897276045205
251.031378922       -0.820747578597
251.53144143       -0.746388389067
252.031503938       -0.674043137578
252.531566446       -0.603565431488
253.031628954       -0.534817071595
253.531691461       -0.467667360187
254.031753969       -0.401992464163
254.531816477       -0.337674827842
255.031878985       -0.274602630614
255.531941493       -0.212669285033
256.032004001       -0.151772971371
256.532066508       -0.0918162050234
257.032129016       -0.0327054334626
257.532191524       0.0256493402312
258.032254032       0.0833349100183
258.53231654       0.140435198216
259.032379047       0.197031567786
259.532441555       0.253203117709
260.032504063       0.309026963391
260.532566571       0.364578503935
261.032629079       0.419931677941
261.532691586       0.475159209437
262.032754094       0.530332845417
262.532816602       0.585523586405
263.03287911       0.64080191137
263.532941618       0.69623799831
264.033004126       0.751901941708
264.533066633       0.807863968116
265.033129141       0.864194651018
265.533191649       0.92096512617
266.033254157       0.978247308588
266.533316665       1.03611411236
