#  x                 y             frequency           rot. str.
0.0      0.655113452908      29.69      12.98
0.500062507813      0.679307825529      51.98      10.21
1.00012501563      0.704746140437      53.68      -17.29
1.50018752344      0.731509459147      62.20      -6.36
2.00025003125      0.759685205844      171.48      -0.93
2.50031253907      0.789367745516      200.99      -4.29
3.00037504688      0.820659020688      290.79      29.44
3.50043755469      0.85366925308      298.28      9.38
4.00050006251      0.88851771722      315.66      -6.82
4.50056257032      0.925333593773      338.48      -7.24
5.00062507813      0.96425691115      352.86      -1.08
5.50068758595      1.00543958482      402.92      21.42
6.00075009376      1.04904656464      423.62      -1.25
6.50081260158      1.0952571015      432.90      -1.75
7.00087510939      1.14426614547      486.32      0.01
7.5009376172      1.19628588863      515.90      7.99
8.00100012502      1.25154746656      539.66      51.16
8.50106263283      1.31030283338      585.89      -86.23
9.00112514064      1.37282682538      625.61      17.01
9.50118764846      1.43941942888      659.69      -0.18
10.0012501563      1.5104082671      727.65      54.04
10.5013126641      1.58615131984      744.44      73.36
11.0013751719      1.66703988727      781.17      5.28
11.5014376797      1.75350180516      816.02      -80.30
12.0015001875      1.8460049124      837.56      -108.94
12.5015626953      1.94506076246      847.80      38.68
13.0016252032      2.05122855648      858.19      -59.13
13.501687711      2.16511925635      883.70      32.23
14.0017502188      2.28739980917      935.74      -4.20
14.5018127266      2.41879737653      942.85      -9.90
15.0018752344      2.56010341156      961.30      -0.84
15.5019377422      2.71217735772      1012.26      0.00
16.00200025      2.87594965124      1035.92      0.49
16.5020627578      3.052423588      1121.14      90.08
17.0021252657      3.2426754564      1129.99      -9.28
17.5021877735      3.44785213261      1142.19      -42.25
18.0022502813      3.66916507258      1182.26      -7.71
18.5023127891      3.90787930769      1194.17      31.84
19.0023752969      4.16529564953      1198.75      1.35
19.5024378047      4.44272383321      1233.91      -0.91
20.0025003125      4.74144378674      1270.43      -1.48
20.5025628204      5.06265163827      1287.52      6.44
21.0026253282      5.40738652704      1303.48      12.09
21.502687836      5.77643388849      1337.28      -25.16
22.0027503438      6.17020083283      1342.31      -13.33
22.5028128516      6.58855983116      1363.58      6.23
23.0028753594      7.03065858363      1367.16      -9.51
23.5029378672      7.49469721267      1425.03      40.94
24.003000375      7.97767940212      1473.47      -5.76
24.5030628829      8.47515230389      1484.83      -4.11
25.0031253907      8.98096108676      1551.28      4.72
25.5031878985      9.48705719587      1634.05      12.60
26.0032504063      9.98341260652      1645.94      -25.40
26.5033129141      10.4581015985      1659.23      -14.79
27.0033754219      10.8976110308      1815.80      22.41
27.5034379297      11.2874232723      2912.02      -9.76
28.0035004376      11.6128783047      3061.92      -3.80
28.5035629454      11.8602642806      3105.27      0.13
29.0036254532      12.0180192839      3151.87      1.93
29.503687961      12.077870679      3160.93      -2.30
30.0037504688      12.0357155178      3178.07      2.94
30.5038129766      11.8920726901      3195.05      -1.32
31.0038754844      11.6520145902      3497.05      4.55
31.5039379922      11.3245923359      3578.10      -4.31
32.0040005001      10.9218703111      3725.28      -0.59
32.5040630079      10.4577513808      3799.36      5.62
33.0041255157       9.94678777358
33.5041880235       9.40313913954
34.0042505313       8.8397781195
34.5043130391       8.26797806619
35.0043755469       7.69706473073
35.5044380548       7.13438157022
36.0045005626       6.58540621439
36.5045630704       6.05395818922
37.0046255782       5.54244872358
37.504688086       5.05213695489
38.0047505938       4.5833696082
38.5048131016       4.13579154271
39.0048756095       3.7085219927
39.5049381173       3.30029614154
40.0050006251       2.90957441254
40.5050631329       2.53462313796
41.0051256407       2.17357059343
41.5051881485       1.82444215704
42.0052506563       1.4851778552
42.5053131641       1.15363499352
43.005375672       0.82757808478
43.5054381798       0.504658004469
44.0055006876       0.182382352767
44.5055631954       -0.141920467104
45.0056257032       -0.471139748014
45.505688211       -0.808417781737
46.0057507188       -1.15717307127
46.5058132267       -1.52109833246
47.0058757345       -1.9041150963
47.5059382423       -2.31026167015
48.0060007501       -2.74348796132
48.5060632579       -3.20733215176
49.0061257657       -3.70446438766
49.5061882735       -4.2361054991
50.0062507813       -4.80136618383
50.5063132892       -5.39660070622
51.006375797       -6.01491741233
51.5064383048       -6.6460162193
52.0065008126       -7.27650741449
52.5065633204       -7.89079127188
53.0066258282       -8.47244996966
53.506688336       -9.00595550964
54.0067508439       -9.47838262567
54.5068133517       -9.88078332119
55.0068758595       -10.2089493561
55.5069383673       -10.4634381526
56.0070008751       -10.6489117765
56.5070633829       -10.7729787335
57.0071258907       -10.8447973035
57.5071883985       -10.873693518
58.0072509064       -10.86798957
58.5073134142       -10.8341616063
59.007375922       -10.7763753459
59.5074384298       -10.6963958738
60.0075009376       -10.5938336882
60.5075634454       -10.4666652354
61.0076259532       -10.3119455295
61.5076884611       -10.1266109151
62.0077509689       -9.90825617894
62.5078134767       -9.65577076165
63.0078759845       -9.36974100784
63.5079384923       -9.05256921338
64.0080010001       -8.70831613463
64.5080635079       -8.34232575235
65.0081260158       -7.96072444276
65.5081885236       -7.56989391405
66.0082510314       -7.17600087133
66.5083135392       -6.78463608141
67.008376047       -6.4005828014
67.5084385548       -6.02770806993
68.0085010626       -5.66895404894
68.5085635704       -5.32640019712
69.0086260783       -5.00136794336
69.5086885861       -4.69454451514
70.0087510939       -4.40610899706
70.5088136017       -4.13584981625
71.0088761095       -3.88326782295
71.5089386173       -3.64766272262
72.0090011251       -3.42820294363
72.509063633       -3.22398035725
73.0091261408       -3.03405189391
73.5091886486       -2.85747027012
74.0092511564       -2.69330594357
74.5093136642       -2.54066218034
75.009376172       -2.39868483342
75.5094386798       -2.26656814413
76.0095011876       -2.14355761511
76.5095636955       -2.02895077562
77.0096262033       -1.92209647086
77.5096887111       -1.82239315325
78.0097512189       -1.72928653247
78.5098137267       -1.64226684625
79.0098762345       -1.5608659411
79.5099387423       -1.48465429724
80.0100012502       -1.41323809017
80.510063758       -1.34625635097
81.0101262658       -1.28337826454
81.5101887736       -1.22430062893
82.0102512814       -1.16874548685
82.5103137892       -1.1164579328
83.010376297       -1.06720409305
83.5104388049       -1.02076927258
84.0105013127       -0.976956260315
84.5105638205       -0.935583782876
85.0106263283       -0.896485096501
85.5106888361       -0.859506706403
86.0107513439       -0.824507203251
86.5108138517       -0.791356206744
87.0108763595       -0.759933406822
87.5109388674       -0.730127693672
88.0110013752       -0.701836368311
88.511063883       -0.67496442621
89.0111263908       -0.649423907034
89.5111888986       -0.625133304199
90.0112514064       -0.602017028502
90.5113139142       -0.580004920632
91.0113764221       -0.559031807866
91.5114389299       -0.539037100681
92.0115014377       -0.519964425468
92.5115639455       -0.501761289876
93.0116264533       -0.484378777672
93.5116889611       -0.46777127032
94.0117514689       -0.451896192734
94.5118139767       -0.436713780941
95.0118764846       -0.422186869601
95.5119389924       -0.408280697531
96.0120015002       -0.394962729576
96.512064008       -0.382202493323
97.0121265158       -0.3699714293
97.5121890236       -0.358242753449
98.0122515314       -0.346991330763
98.5123140393       -0.336193559095
99.0123765471       -0.325827262241
99.5124390549       -0.315871591474
100.012501563       -0.306306934807
100.512564071       -0.297114833311
101.012626578       -0.288277903876
101.512689086       -0.279779767886
102.012751594       -0.271604985291
102.512814102       -0.263738993643
103.01287661       -0.256168051668
103.512939117       -0.248879187015
104.013001625       -0.241860147837
104.513064133       -0.235099357894
105.013126641       -0.228585874903
105.513189149       -0.222309351863
106.013251656       -0.216260001146
106.513314164       -0.210428561111
107.013376672       -0.204806265066
107.51343918       -0.199384812398
108.013501688       -0.194156341691
108.513564196       -0.189113405708
109.013626703       -0.184248948073
109.513689211       -0.179556281549
110.013751719       -0.175029067788
110.513814227       -0.170661298444
111.013876735       -0.166447277558
111.513939242       -0.162381605125
112.01400175       -0.158459161761
112.514064258       -0.154675094391
113.014126766       -0.151024802896
113.514189274       -0.14750392765
114.014251781       -0.144108337897
114.514314289       -0.140834120894
115.014376797       -0.137677571804
115.514439305       -0.134635184265
116.014501813       -0.131703641599
116.514564321       -0.128879808643
117.014626828       -0.126160724139
117.514689336       -0.123543593671
118.014751844       -0.12102578311
118.514814352       -0.118604812549
119.01487686       -0.11627835069
119.514939367       -0.114044209681
120.015001875       -0.111900340366
120.515064383       -0.109844827935
121.015126891       -0.107875887964
121.515189399       -0.105991862828
122.015251906       -0.104191218467
122.515314414       -0.102472541511
123.015376922       -0.100834536741
123.51543943       -0.0992760248798
124.015501938       -0.0977959407179
124.515564446       -0.0963933315606
125.015626953       -0.095067355996
125.515689461       -0.0938172829847
126.015751969       -0.0926424912711
126.515814477       -0.0915424691194
127.015876985       -0.0905168143769
127.515939492       -0.0895652348724
128.016002       -0.0886875491557
128.516064508       -0.0878836875898
129.016127016       -0.0871536938048
129.516189524       -0.0864977265306
130.016252032       -0.0859160618213
130.516314539       -0.0854090956922
131.016377047       -0.08497734719
131.516439555       -0.0846214619198
132.016502063       -0.0843422160567
132.516564571       -0.0841405208729
133.016627078       -0.0840174278144
133.516689586       -0.0839741341653
134.016752094       -0.0840119893435
134.516814602       -0.0841325018761
135.01687711       -0.0843373471056
135.516939617       -0.0846283756892
136.017002125       -0.0850076229549
136.517064633       -0.0854773191884
137.017127141       -0.0860399009333
137.517189649       -0.0866980233924
138.017252157       -0.0874545740341
138.517314664       -0.0883126875124
139.017377172       -0.0892757620265
139.51743968       -0.0903474772566
140.017502188       -0.09153181403
140.517564696       -0.0928330758872
141.017627203       -0.0942559127369
141.517689711       -0.0958053468115
142.017752219       -0.0974868011552
142.517814727       -0.0993061309065
143.017877235       -0.101269657663
143.517939742       -0.103384207249
144.01800225       -0.105657151246
144.518064758       -0.108096452678
145.018127266       -0.110710716296
145.518189774       -0.113509243939
146.018252282       -0.116502095524
146.518314789       -0.119700156248
147.018377297       -0.123115210663
147.518439805       -0.126760024342
148.018502313       -0.130648433921
148.518564821       -0.134795446375
149.018627328       -0.139217348458
149.518689836       -0.143931827288
150.018752344       -0.148958103147
150.518814852       -0.154317075579
151.01887736       -0.160031483933
151.518939867       -0.166126083457
152.019002375       -0.172627838029
152.519064883       -0.179566130473
153.019127391       -0.186972991185
153.519189899       -0.194883345463
154.019252407       -0.203335279366
154.519314914       -0.212370323142
155.019377422       -0.222033750113
155.51943993       -0.232374887286
156.019502438       -0.243447431696
156.519564946       -0.255309763413
157.019627453       -0.268025241956
157.519689961       -0.281662467235
158.019752469       -0.296295478648
158.519814977       -0.31200385615
159.019877485       -0.328872674267
159.519939992       -0.346992243605
160.0200025       -0.366457553543
160.520065008       -0.387367304039
161.020127516       -0.409822383214
161.520190024       -0.433923611026
162.020252532       -0.45976852901
162.520315039       -0.487446975033
163.020377547       -0.517035146489
163.520440055       -0.548587836131
164.020502563       -0.582128539024
164.520565071       -0.617637202203
165.020627578       -0.655035554888
165.520690086       -0.694170258085
166.020752594       -0.734794590259
166.520815102       -0.776550068043
167.02087761       -0.818950274197
167.520940118       -0.861370137502
168.021002625       -0.90304477065
168.521065133       -0.943082372691
169.021127641       -0.98049518722
169.521190149       -1.01425064511
170.021252657       -1.04334143856
170.521315164       -1.06686873414
171.021377672       -1.08412809421
171.52144018       -1.09468453121
172.021502688       -1.09842302451
172.521565196       -1.09556450001
173.021627703       -1.08664400957
173.521690211       -1.07245563126
174.021752719       -1.0539749512
174.521815227       -1.03227304168
175.021877735       -1.00843516799
175.521940243       -0.983493946101
176.02200275       -0.958381951127
176.522065258       -0.933904374707
177.022127766       -0.910729192369
177.522190274       -0.889390685101
178.022252782       -0.870301828994
178.522315289       -0.853771573555
179.022377797       -0.840023929811
179.522440305       -0.829216756462
180.022502813       -0.821458977868
180.522565321       -0.816825615556
181.022627828       -0.81537046082
181.522690336       -0.817136491385
182.022752844       -0.822164282571
182.522815352       -0.830498723606
183.02287786       -0.842194355294
183.522940368       -0.857319619779
184.023002875       -0.875960272436
184.523065383       -0.898222159323
185.023127891       -0.924233516363
185.523190399       -0.954146900427
186.023252907       -0.988140818014
186.523315414       -1.02642107295
187.023377922       -1.06922180865
187.52344043       -1.11680617019
188.023502938       -1.16946645405
188.523565446       -1.22752354479
189.023627953       -1.29132535533
189.523690461       -1.36124388611
190.023752969       -1.43767039567
190.523815477       -1.52100802872
191.023877985       -1.61166107767
191.523940493       -1.71001986636
192.024003       -1.81644005428
192.524065508       -1.93121499401
193.024128016       -2.05453968422
193.524190524       -2.18646492329
194.024253032       -2.32684060125
194.524315539       -2.47524782788
195.024378047       -2.63092097396
195.524440555       -2.79266289539
196.024503063       -2.95875974506
196.524565571       -3.12690579597
197.024628079       -3.2941531838
197.524690586       -3.45690546556
198.024753094       -3.61097577765
198.524815602       -3.75172806579
199.02487811       -3.87431135555
199.524940618       -3.97398151508
200.025003125       -4.04648406698
200.525065633       -4.08845017264
201.025128141       -4.09774326979
201.525190649       -4.07369319468
202.025253157       -4.01717133941
202.525315664       -3.93049133853
203.025378172       -3.81715569789
203.52544068       -3.6814981698
204.025503188       -3.52828598503
204.525565696       -3.36234310601
205.025628204       -3.1882395933
205.525690711       -3.01007041444
206.025753219       -2.83132666721
206.525815727       -2.65484762796
207.025878235       -2.48283449196
207.525940743       -2.31690508422
208.02600325       -2.15817111986
208.526065758       -2.00732373399
209.026128266       -1.86471746365
209.526190774       -1.73044677397
210.026253282       -1.60441222092
210.526315789       -1.48637541133
211.026378297       -1.3760032005
211.526440805       -1.27290225757
212.026503313       -1.17664541441
212.526565821       -1.08679125012
213.026628329       -1.00289825793
213.526690836       -0.924534771442
214.026753344       -0.851285636466
214.526815852       -0.782756430921
215.02687836       -0.71857587081
215.526940868       -0.658396899997
216.027003375       -0.601896846173
216.527065883       -0.548776932544
217.027128391       -0.498761361657
217.527190899       -0.451596130928
218.027253407       -0.407047695849
218.527315914       -0.364901563789
219.027378422       -0.324960876453
219.52744093       -0.287045020626
220.027503438       -0.250988293195
220.527565946       -0.216638636566
221.027628454       -0.183856453461
221.527690961       -0.152513505045
222.027753469       -0.12249189283
222.527815977       -0.0936831224311
223.027878485       -0.065987245734
223.527940993       -0.0393120770696
224.0280035       -0.0135724784983
224.528066008       0.0113102909089
225.028128516       0.0354091669126
225.528191024       0.0587918180504
226.028253532       0.0815211344465
226.52831604       0.103655671965
227.028378547       0.125250055888
227.528441055       0.146355347976
228.028503563       0.167019380467
228.528566071       0.187287060256
229.028628579       0.20720064622
229.528691086       0.226800002373
230.028753594       0.246122829296
230.528816102       0.265204876052
231.02887861       0.28408013459
231.528941118       0.302781018437
232.029003625       0.321338527328
232.529066133       0.339782399257
233.029128641       0.358141251271
233.529191149       0.376442710247
234.029253657       0.394713534745
234.529316165       0.412979728939
235.029378672       0.431266649546
235.52944118       0.449599106585
236.029503688       0.468001458736
236.529566196       0.486497704002
237.029628704       0.505111566319
237.529691211       0.523866578735
238.029753719       0.542786163689
238.529816227       0.561893710959
239.029878735       0.581212653732
239.529941243       0.600766543309
240.03000375       0.620579122864
240.530066258       0.640674400715
241.030128766       0.661076723518
241.530191274       0.681810849807
242.030253782       0.702902024279
242.53031629       0.724376053245
243.030378797       0.746259381651
243.530441305       0.768579172082
244.030503813       0.791363386186
244.530566321       0.814640868941
245.030628829       0.838441436236
245.530691336       0.862795966221
246.030753844       0.887736494942
246.530816352       0.913296316777
247.03087886       0.939510090231
247.530941368       0.966413949688
248.031003875       0.99404562376
248.531066383       1.02244456091
249.031128891       1.05165206309
249.531191399       1.0817114282
250.031253907       1.11266810223
250.531316415       1.14456984201
251.031378922       1.17746688961
251.53144143       1.21141215951
252.031503938       1.24646143974
252.531566446       1.28267360837
253.031628954       1.32011086673
253.531691461       1.35883899108
254.031753969       1.39892760443
254.531816477       1.44045047042
255.031878985       1.48348581157
255.531941493       1.52811665397
256.032004001       1.57443120139
256.532066508       1.62252324132
257.032129016       1.67249258646
257.532191524       1.72444555489
258.032254032       1.77849549306
258.53231654       1.83476334578
259.032379047       1.89337827809
259.532441555       1.95447835424
260.032504063       2.01821127983
260.532566571       2.08473521345
261.032629079       2.15421965539
261.532691586       2.22684642122
262.032754094       2.30281070942
262.532816602       2.382322273
