#  x                 y             frequency           rot. str.
0.0      -0.867084155036      34.88      -26.88
0.500062507813      -0.894670255239      51.89      33.48
1.00012501563      -0.923505900198      54.23      -7.60
1.50018752344      -0.953664148936      71.26      -11.79
2.00025003125      -0.985223253969      170.90      -18.64
2.50031253907      -1.01826709289      201.64      -5.85
3.00037504688      -1.05288564062      279.30      70.59
3.50043755469      -1.08917548664      306.96      -1.34
4.00050006251      -1.12724040179      337.44      18.82
4.50056257032      -1.16719196001      346.06      0.38
5.00062507813      -1.2091502208      353.49      -10.12
5.50068758595      -1.25324447885      421.27      0.37
6.00075009376      -1.29961408807      424.53      9.57
6.50081260158      -1.34840936816      434.11      3.39
7.00087510939      -1.39979260246      493.13      -5.23
7.5009376172      -1.45393913712      531.50      -38.61
8.00100012502      -1.51103859268      540.89      -5.86
8.50106263283      -1.57129620012      616.85      2.98
9.00112514064      -1.6349342751      659.80      0.23
9.50118764846      -1.70219384538      721.21      56.76
10.0012501563      -1.7733364479      739.19      3.72
10.5013126641      -1.84864611396      787.00      2.96
11.0013751719      -1.92843156234      819.42      -2.10
11.5014376797      -2.0130286225      836.91      -101.13
12.0015001875      -2.10280291144      849.34      -85.68
12.5015626953      -2.19815279004      859.36      69.27
13.0016252032      -2.29951262643      881.31      -54.41
13.501687711      -2.40735639521      884.74      93.54
14.0017502188      -2.52220164286      927.01      79.34
14.5018127266      -2.64461384993      942.01      0.19
15.0018752344      -2.77521122018      956.29      2.84
15.5019377422      -2.91466992467      1034.99      -7.52
16.00200025      -3.06372982504      1036.17      -98.16
16.5020627578      -3.22320069253      1111.92      65.70
17.0021252657      -3.39396892861      1118.22      -4.52
17.5021877735      -3.57700477538      1144.73      -25.42
18.0022502813      -3.77336997945      1190.01      -21.28
18.5023127891      -3.98422583694      1198.71      -3.59
19.0023752969      -4.2108414977      1211.37      -57.42
19.5024378047      -4.45460233724      1233.50      6.01
20.0025003125      -4.71701811089      1248.18      66.82
20.5025628204      -4.99973047657      1288.77      -11.70
21.0026253282      -5.30451930151      1291.85      -10.82
21.502687836      -5.63330694104      1341.53      -1.45
22.0027503438      -5.98815937951      1362.25      -0.49
22.5028128516      -6.37128273581      1366.47      -9.19
23.0028753594      -6.78501314006      1397.08      -73.97
23.5029378672      -7.23179736219      1409.24      83.32
24.003000375      -7.71416080045      1473.81      4.53
24.5030628829      -8.23465850847      1492.19      -2.93
25.0031253907      -8.79580386348      1551.48      -2.03
25.5031878985      -9.39996829973      1634.41      -1.60
26.0032504063      -10.0492443543      1658.87      27.28
26.5033129141      -10.7452632954      1662.10      -17.57
27.0033754219      -11.488958167      1834.76      39.70
27.5034379297      -12.2802637167      3028.45      9.67
28.0035004376      -13.1177471566      3044.55      -13.56
28.5035629454      -13.9981690685      3099.73      7.80
29.0036254532      -14.915983228      3151.32      -2.34
29.503687961      -15.8627988774      3160.81      8.11
30.0037504688      -16.8268496821      3169.26      -1.33
30.5038129766      -17.7925395811      3196.15      1.17
31.0038754844      -18.7401638394      3451.87      35.99
31.5039379922      -19.6459271043      3493.09      6.83
32.0040005001      -20.4823884038      3575.52      -5.61
32.5040630079      -21.2194424343      3799.15      -5.89
33.0041255157       -21.8258853977
33.5041880235       -22.2715091148
34.0042505313       -22.5295328305
34.5043130391       -22.5790518217
35.0043755469       -22.4071029233
35.5044380548       -22.0099619697
36.0045005626       -21.3934115914
36.5045630704       -20.5719224052
37.0046255782       -19.566913675
37.504688086       -18.4044299017
38.0047505938       -17.1126400702
38.5048131016       -15.7195306042
39.0048756095       -14.2510527271
39.5049381173       -12.7298476905
40.0050006251       -11.1745514201
40.5050631329       -9.5995974123
41.0051256407       -8.01539776978
41.5051881485       -6.42877873483
42.0052506563       -4.84356564107
42.5053131641       -3.26124040241
43.005375672       -1.68162357297
43.5054381798       -0.103557568589
44.0055006876       1.4744143521
44.5055631954       3.05336783445
45.0056257032       4.63330650684
45.505688211       6.21245414385
46.0057507188       7.78653415359
46.5058132267       9.34805892136
47.0058757345       10.8856776617
47.5059382423       12.3836638924
48.0060007501       13.8216580161
48.5060632579       15.1748079676
49.0061257657       16.4144577785
49.5061882735       17.5095034398
50.0062507813       18.4284532553
50.5063132892       19.1420932021
51.006375797       19.626485582
51.5064383048       19.865866513
52.0065008126       19.8549171999
52.5065633204       19.5999216052
53.0066258282       19.1185077629
53.506688336       18.437962646
54.0067508439       17.5924225139
54.5068133517       16.6194696666
55.0068758595       15.556742401
55.5069383673       14.4390788672
56.0070008751       13.2965171245
56.5070633829       12.1532418717
57.0071258907       11.0273748085
57.5071883985       9.93139059873
58.0072509064       8.87290798602
58.5073134142       7.85563455803
59.007375922       6.88030381865
59.5074384298       5.94550856131
60.0075009376       5.04838904826
60.5075634454       4.18517218183
61.0076259532       3.35157946673
61.5076884611       2.54313103204
62.0077509689       1.75537475813
62.5078134767       0.984067267223
63.0078759845       0.225329582386
63.5079384923       -0.524204091574
64.0080010001       -1.26723033866
64.5080635079       -2.00560357845
65.0081260158       -2.74014158942
65.5081885236       -3.47041127511
66.0082510314       -4.19450472884
66.5083135392       -4.90882618
67.008376047       -5.60792275878
67.5084385548       -6.28440454583
68.0085010626       -6.92900874214
68.5085635704       -7.5308639435
69.0086260783       -8.07799753816
69.5086885861       -8.55809765701
70.0087510939       -8.9594911308
70.5088136017       -9.27223874479
71.0088761095       -9.48919550558
71.5089386173       -9.60685779752
72.0090011251       -9.62583774515
72.509063633       -9.55086993805
73.0091261408       -9.39035035458
73.5091886486       -9.15550207028
74.0092511564       -8.85932735344
74.5093136642       -8.51552439549
75.009376172       -8.13752124107
75.5094386798       -7.737725966
76.0095011876       -7.32703194744
76.5095636955       -6.91456698578
77.0096262033       -6.50764329668
77.5096887111       -6.11185225126
78.0097512189       -5.73124868536
78.5098137267       -5.36857870369
79.0098762345       -5.02551706572
79.5099387423       -4.70289205282
80.0100012502       -4.4008854452
80.510063758       -4.1192023576
81.0101262658       -3.85721037688
81.5101887736       -3.61405019951
82.0102512814       -3.3887213282
82.5103137892       -3.18014683397
83.010376297       -2.98722109102
83.5104388049       -2.80884400648
84.0105013127       -2.64394476263
84.5105638205       -2.49149756687
85.0106263283       -2.35053141874
85.5106888361       -2.22013547835
86.0107513439       -2.09946126453
86.5108138517       -1.98772262083
87.0108763595       -1.88419415621
87.5109388674       -1.78820868648
88.0110013752       -1.69915406212
88.511063883       -1.61646966182
89.0111263908       -1.53964274995
89.5111888986       -1.4682048359
90.0112514064       -1.40172812859
90.5113139142       -1.33982214636
91.0113764221       -1.28213051884
91.5114389299       -1.22832800025
92.0115014377       -1.17811770161
92.5115639455       -1.13122854112
93.0116264533       -1.08741290624
93.5116889611       -1.04644451778
94.0117514689       -1.0081164839
94.5118139767       -0.972239531116
95.0118764846       -0.938640398689
95.5119389924       -0.90716038334
96.0120015002       -0.877654021251
96.512064008       -0.849987895224
97.0121265158       -0.824039555537
97.5121890236       -0.799696543844
98.0122515314       -0.776855510349
98.5123140393       -0.755421415262
99.0123765471       -0.735306806367
99.5124390549       -0.716431165267
100.012501563       -0.698720315573
100.512564071       -0.682105886958
101.012626578       -0.66652482958
101.512689086       -0.651918973939
102.012751594       -0.638234631717
102.512814102       -0.625422233594
103.01287661       -0.61343600045
103.512939117       -0.602233644725
104.013001625       -0.591776099034
104.513064133       -0.582027269425
105.013126641       -0.572953810957
105.513189149       -0.564524923479
106.013251656       -0.556712165735
106.513314164       -0.549489286096
107.013376672       -0.54283206839
107.51343918       -0.536718191477
108.013501688       -0.531127101318
108.513564196       -0.526039894442
109.013626703       -0.521439211823
109.513689211       -0.517309142255
110.013751719       -0.513635134438
110.513814227       -0.510403917033
111.013876735       -0.507603426059
111.513939242       -0.50522273902
112.01400175       -0.503252015258
112.514064258       -0.501682442056
113.014126766       -0.500506186054
113.514189274       -0.499716349623
114.014251781       -0.499306931838
114.514314289       -0.499272793765
115.014376797       -0.499609627777
115.514439305       -0.500313930684
116.014501813       -0.501382980441
116.514564321       -0.502814816284
117.014626828       -0.504608222104
117.514689336       -0.506762712949
118.014751844       -0.509278524526
118.514814352       -0.512156605618
119.01487686       -0.515398613332
119.514939367       -0.519006911137
120.015001875       -0.52298456964
120.515064383       -0.527335370085
121.015126891       -0.532063810582
121.515189399       -0.537175115055
122.015251906       -0.54267524497
122.515314414       -0.548570913863
123.015376922       -0.554869604757
123.51543943       -0.561579590529
124.015501938       -0.56870995735
124.515564446       -0.576270631298
125.015626953       -0.584272408303
125.515689461       -0.59272698758
126.015751969       -0.60164700872
126.515814477       -0.611046092686
127.015876985       -0.620938886903
127.515939492       -0.631341114744
128.016002       -0.642269629688
128.516064508       -0.653742474477
129.016127016       -0.665778945643
129.516189524       -0.678399663802
130.016252032       -0.691626650166
130.516314539       -0.705483409753
131.016377047       -0.719995021861
131.516439555       -0.735188238392
132.016502063       -0.751091590693
132.516564571       -0.767735505652
133.016627078       -0.785152431869
133.516689586       -0.803376976776
134.016752094       -0.822446055724
134.516814602       -0.842399054112
135.01687711       -0.863278003788
135.516939617       -0.885127775046
136.017002125       -0.907996285716
136.517064633       -0.931934728991
137.017127141       -0.956997821807
137.517189649       -0.983244075804
138.017252157       -1.0107360931
138.517314664       -1.0395408894
139.017377172       -1.06973024709
139.51743968       -1.10138110159
140.017502188       -1.13457596415
140.517564696       -1.16940338499
141.017627203       -1.205958461
141.517689711       -1.24434339268
142.017752219       -1.2846680954
142.517814727       -1.32705087097
143.017877235       -1.37161914581
143.517939742       -1.41851028283
144.01800225       -1.46787247512
144.518064758       -1.51986573007
145.018127266       -1.57466295374
145.518189774       -1.63245114631
146.018252282       -1.69343272045
146.518314789       -1.7578269557
147.018377297       -1.82587160337
147.518439805       -1.89782465756
148.018502313       -1.97396630953
148.518564821       -2.05460110373
149.018627328       -2.14006031544
149.518689836       -2.23070457089
150.018752344       -2.32692673153
150.518814852       -2.42915506492
151.01887736       -2.53785672397
151.518939867       -2.65354155545
152.019002375       -2.77676625559
152.519064883       -2.90813888601
153.019127391       -3.0483237555
153.519189899       -3.1980466615
154.019252407       -3.35810046803
154.519314914       -3.52935097235
155.019377422       -3.71274297846
155.51943993       -3.90930644767
156.019502438       -4.12016253163
156.519564946       -4.3465292051
157.019627453       -4.58972609726
157.519689961       -4.85117796401
158.019752469       -5.13241603727
158.519814977       -5.43507621994
159.019877485       -5.76089275185
159.519939992       -6.11168553971
160.0200025       -6.48933880928
160.520065008       -6.89576809491
161.020127516       -7.33287183716
161.520190024       -7.80246304251
162.020252532       -8.30617564448
162.520315039       -8.84533952713
163.020377547       -9.42081786724
163.520440055       -10.0328008867
164.020502563       -10.6805518191
164.520565071       -11.3621046002
165.020627578       -12.0739193355
165.520690086       -12.8105118083
166.020752594       -13.5640876256
166.520815102       -14.3242295957
167.02087761       -15.0777064193
167.520940118       -15.8084871057
168.021002625       -16.4980512593
168.521065133       -17.1260712457
169.021127641       -17.6715000675
169.521190149       -18.1140264509
170.021252657       -18.4357655618
170.521315164       -18.6229632882
171.021377672       -18.6674369109
171.52144018       -18.5674848296
172.021502688       -18.3280831454
172.521565196       -17.9603285007
173.021627703       -17.4802412412
173.521690211       -16.9071613577
174.021752719       -16.2620187111
174.521815227       -15.5657345171
175.021877735       -14.837934518
175.521940243       -14.0960588013
176.02200275       -13.3548681642
176.522065258       -12.6262888735
177.022127766       -11.9195098808
177.522190274       -11.2412432497
178.022252782       -10.5960705117
178.522315289       -9.98681629732
179.022377797       -9.41490975827
179.522440305       -8.88071066577
180.022502813       -8.38378938576
180.522565321       -7.9231582706
181.022627828       -7.49745706484
181.522690336       -7.1050975596
182.022752844       -6.74437374482
182.522815352       -6.41354372728
183.02287786       -6.11088915879
183.522940368       -5.83475714967
184.023002875       -5.58358881152
184.523065383       -5.35593778143
185.023127891       -5.15048137578
185.523190399       -4.96602642235
186.023252907       -4.80151132288
186.523315414       -4.65600549329
187.023377922       -4.52870699972
187.52344043       -4.41893894062
188.023502938       -4.3261449009
188.523565446       -4.24988361054
189.023627953       -4.18982276314
189.523690461       -4.14573177769
190.023752969       -4.11747310889
190.523815477       -4.10499151854
191.023877985       -4.10830050548
191.523940493       -4.12746485183
192.024003       -4.16257798143
192.524065508       -4.21373255703
193.024128016       -4.2809824965
193.524190524       -4.36429442181
194.024253032       -4.46348656219
194.524315539       -4.57815345564
195.024378047       -4.707575629
195.524440555       -4.85061503661
196.024503063       -5.00559967054
196.524565571       -5.17020463982
197.024628079       -5.34134216791
197.524690586       -5.51507898397
198.024753094       -5.68660541597
198.524815602       -5.85028420602
199.02487811       -5.99980594937
199.524940618       -6.12846921997
200.025003125       -6.22958510401
200.525065633       -6.29697907928
201.025128141       -6.32553323068
201.525190649       -6.31168791709
202.025253157       -6.2538145811
202.525315664       -6.15238710201
203.025378172       -6.0099164838
203.52544068       -5.83066226049
204.025503188       -5.62017828545
204.525565696       -5.38477699706
205.025628204       -5.13099903638
205.525690711       -4.86515758214
206.025753219       -4.5929982966
206.525815727       -4.31948661112
207.025878235       -4.04871149514
207.525940743       -3.78388174053
208.02600325       -3.52738645799
208.526065758       -3.28089334415
209.026128266       -3.04546342886
209.526190774       -2.82166713024
210.026253282       -2.60969208068
210.526315789       -2.40943766931
211.026378297       -2.22059443388
211.526440805       -2.04270847553
212.026503313       -1.87523222322
212.526565821       -1.71756340513
213.026628329       -1.56907421746
213.526690836       -1.42913258281
214.026753344       -1.29711717698
214.526815852       -1.17242764683
215.02687836       -1.05449118581
215.526940868       -0.942766400828
216.027003375       -0.836745202298
216.527065883       -0.735953282248
217.027128391       -0.639949609941
217.527190899       -0.548325267063
218.027253407       -0.460701860944
218.527315914       -0.376729689807
219.027378422       -0.296085785033
219.52744093       -0.218471918486
220.027503438       -0.143612635424
220.527565946       -0.0712533531711
221.027628454       -0.00115855086236
221.527690961       0.0668899351491
222.027753469       0.133094503265
222.527815977       0.197643264382
223.027878485       0.260711407416
223.527940993       0.322462457036
224.0280035       0.383049429508
224.528066008       0.442615893446
225.028128516       0.501296942611
225.528191024       0.55922008805
226.028253532       0.616506076673
226.52831604       0.673269643163
227.028378547       0.729620201722
227.528441055       0.785662483793
228.028503563       0.841497127464
228.528566071       0.897221223873
229.028628579       0.952928825518
229.528691086       1.00871142102
230.028753594       1.06465838048
230.528816102       1.12085737543
231.02887861       1.17739477671
231.528941118       1.23435603393
232.029003625       1.29182603925
232.529066133       1.34988947868
233.029128641       1.40863117346
233.529191149       1.46813641408
234.029253657       1.52849128954
234.529316165       1.58978301411
235.029378672       1.65210025394
235.52944118       1.71553345578
236.029503688       1.78017518
236.529566196       1.84612044023
237.029628704       1.91346705185
237.529691211       1.98231599151
238.029753719       2.0527717703
238.529816227       2.12494282281
239.029878735       2.19894191467
239.529941243       2.27488657148
240.03000375       2.35289953172
240.530066258       2.4331092269
241.030128766       2.51565029224
241.530191274       2.60066411129
242.030253782       2.68829939846
242.53031629       2.77871282363
243.030378797       2.87206968327
243.530441305       2.96854462316
244.030503813       3.06832241817
244.530566321       3.1715988149
245.030628829       3.27858144405
245.530691336       3.38949080944
246.030753844       3.50456136195
246.530816352       3.62404266712
247.03087886       3.74820067612
247.530941368       3.87731911102
248.031003875       4.01170097635
248.531066383       4.15167021017
249.031128891       4.29757348961
249.531191399       4.449782207
250.031253907       4.60869463512
250.531316415       4.7747383016
251.031378922       4.94837259498
251.53144143       5.13009162752
252.031503938       5.32042738235
252.531566446       5.51995317582
253.031628954       5.72928746912
253.531691461       5.94909806705
254.031753969       6.18010674555
254.531816477       6.42309435429
255.031878985       6.67890644483
255.531941493       6.94845948017
256.032004001       7.23274768625
256.532066508       7.5328506114
257.032129016       7.84994146484
257.532191524       8.18529631003
258.032254032       8.54030419298
258.53231654       8.91647828855
259.032379047       9.31546814883
259.532441555       9.73907313614
260.032504063       10.189257117
260.532566571       10.6681644819
261.032629079       11.1781375351
261.532691586       11.7217352662
262.032754094       12.3017534681
262.532816602       12.921246095
263.03287911       13.583547652
263.532941618       14.2922962729
264.033004126       15.0514569417
264.533066633       15.865344056
265.033129141       16.7386421696
