#  x                 y             frequency           rot. str.
0.0      -0.490928761595      23.25      1.86
0.500062507813      -0.505206738831      31.29      -12.93
1.00012501563      -0.520078431455      55.53      8.75
1.50018752344      -0.535574530422      64.72      -3.54
2.00025003125      -0.551727572229      166.23      -0.26
2.50031253907      -0.568572068855      185.91      0.60
3.00037504688      -0.586144650569      242.93      -19.95
3.50043755469      -0.604484223967      270.77      0.64
4.00050006251      -0.623632148228      298.25      0.56
4.50056257032      -0.643632433488      334.14      -1.52
5.00062507813      -0.664531966352      355.56      -8.36
5.50068758595      -0.686380769115      384.54      -4.05
6.00075009376      -0.709232301259      421.42      4.17
6.50081260158      -0.733143814479      430.58      -1.28
7.00087510939      -0.758176775968      491.15      -6.32
7.5009376172      -0.784397379365      524.25      -4.39
8.00100012502      -0.811877168832      558.83      -49.11
8.50106263283      -0.840693809715      595.98      38.12
9.00112514064      -0.870932049712      633.35      56.44
9.50118764846      -0.902684928046      659.81      0.61
10.0012501563      -0.936055307724      723.76      10.76
10.5013126641      -0.971157828613      749.59      4.35
11.0013751719      -1.00812140777      792.60      94.95
11.5014376797      -1.04709244962      811.26      21.50
12.0015001875      -1.08823897338      823.68      -13.21
12.5015626953      -1.13175591886      840.84      -110.11
13.0016252032      -1.17787195555      866.05      45.00
13.501687711      -1.22685819025      884.28      -2.48
14.0017502188      -1.27903924239      911.49      29.23
14.5018127266      -1.33480722298      935.03      8.17
15.0018752344      -1.39463919523      961.05      7.25
15.5019377422      -1.4591186852      980.84      -21.88
16.00200025      -1.52896170445      1036.37      -0.16
16.5020627578      -1.60504748329      1112.59      0.54
17.0021252657      -1.68845361302      1128.19      -6.84
17.5021877735      -1.78049446683      1148.06      -71.19
18.0022502813      -1.88276052966      1164.80      4.06
18.5023127891      -1.99715458033      1190.86      2.23
19.0023752969      -2.12591861015      1199.12      -0.03
19.5024378047      -2.27164319497      1235.37      1.66
20.0025003125      -2.43724929148      1285.59      68.78
20.5025628204      -2.62593190082      1288.38      -48.30
21.0026253282      -2.84105666528      1296.27      -5.42
21.502687836      -3.08600495369      1343.94      -14.75
22.0027503438      -3.36397033005      1359.40      -11.28
22.5028128516      -3.6777182422      1360.64      0.06
23.0028753594      -4.02932876243      1366.85      19.12
23.5029378672      -4.41994610246      1402.45      -33.10
24.003000375      -4.84955608938      1475.38      6.33
24.5030628829      -5.31680391081      1488.66      -0.73
25.0031253907      -5.81885236871      1551.80      -2.00
25.5031878985      -6.35127092372      1636.33      -10.14
26.0032504063      -6.90794320616      1659.05      5.19
26.5033129141      -7.48098825371      1665.07      19.99
27.0033754219      -8.06070766752      1804.87      -28.62
27.5034379297      -8.63559275626      3035.32      -1.20
28.0035004376      -9.19244564006      3072.90      -5.04
28.5035629454      -9.71667809274      3088.05      3.75
29.0036254532      -10.1928438321      3149.13      -1.34
29.503687961      -10.6054288082      3167.77      -1.61
30.0037504688      -10.9398702592      3182.05      2.10
30.5038129766      -11.1837081339      3198.23      3.16
31.0038754844      -11.3277105393      3495.02      -0.55
31.5039379922      -11.3667818189      3572.33      5.23
32.0040005001      -11.3004768543      3725.39      -0.69
32.5040630079      -11.1330119649      3799.87      -4.50
33.0041255157       -10.8727645561
33.5041880235       -10.5313582959
34.0042505313       -10.1225047987
34.5043130391       -9.66079689532
35.0043755469       -9.160623368
35.5044380548       -8.63531777831
36.0045005626       -8.09658789327
36.5045630704       -7.55421618779
37.0046255782       -7.01598567166
37.504688086       -6.48776964644
38.0047505938       -5.97372422539
38.5048131016       -5.47653206496
39.0048756095       -4.9976590523
39.5049381173       -4.53759880136
40.0050006251       -4.09609071496
40.5050631329       -3.67230542555
41.0051256407       -3.26499679882
41.5051881485       -2.8726228965
42.0052506563       -2.49343995276
42.5053131641       -2.12557406013
43.005375672       -1.76707530549
43.5054381798       -1.41595884285
44.0055006876       -1.07023703411
44.5055631954       -0.72794645421
45.0056257032       -0.387173308017
45.505688211       -0.0460806730987
46.0057507188       0.297059037503
46.5058132267       0.643822933978
47.0058757345       0.99558428466
47.5059382423       1.35344337779
48.0060007501       1.71813930232
48.5060632579       2.08994006446
49.0061257657       2.46850998401
49.5061882735       2.85275603718
50.0062507813       3.24065913791
50.5063132892       3.62910257151
51.006375797       4.01371785899
51.5064383048       4.38877749515
52.0065008126       4.74717245578
52.5065633204       5.08051698814
53.0066258282       5.37941978808
53.506688336       5.63394504045
54.0067508439       5.83425687161
54.5068133517       5.9713991704
55.0068758595       6.03811858758
55.5069383673       6.02960637747
56.0070008751       5.94402967874
56.5070633829       5.78275297401
57.0071258907       5.55021100425
57.5071883985       5.25346755792
58.0072509064       4.90155671506
58.5073134142       4.50473552442
59.007375922       4.0737734912
59.5074384298       3.61937166726
60.0075009376       3.15175730521
60.5075634454       2.68045401552
61.0076259532       2.21419242126
61.5076884611       1.76090668765
62.0077509689       1.32775781737
62.5078134767       0.921132923566
63.0078759845       0.54658784893
63.5079384923       0.208725020998
64.0080010001       -0.0889752800421
64.5080635079       -0.344330049617
65.0081260158       -0.556583606262
65.5081885236       -0.726444980362
66.0082510314       -0.856003961456
66.5083135392       -0.948525241024
67.008376047       -1.00814801226
67.5084385548       -1.03953711907
68.0085010626       -1.04753664776
68.5085635704       -1.03686865974
69.0086260783       -1.01190369081
69.5086885861       -0.976511994055
70.0087510939       -0.933990135535
70.5088136017       -0.887048724409
71.0088761095       -0.8378437001
71.5089386173       -0.7880342929
72.0090011251       -0.738853749718
72.509063633       -0.691182682062
73.0091261408       -0.645618474665
73.5091886486       -0.602537107794
74.0092511564       -0.562145862938
74.5093136642       -0.524526768675
75.009376172       -0.48967145343
75.5094386798       -0.45750846971
76.0095011876       -0.42792428326
76.5095636955       -0.400779089475
77.0096262033       -0.375918504672
77.5096887111       -0.353182030643
78.0097512189       -0.332409036674
78.5098137267       -0.313442859881
79.0098762345       -0.296133499357
79.5099387423       -0.280339274523
80.0100012502       -0.265927732275
80.510063758       -0.252776019094
81.0101262658       -0.240770880484
81.5101887736       -0.22980840845
82.0102512814       -0.219793625764
82.5103137892       -0.21063997151
83.010376297       -0.20226873409
83.5104388049       -0.194608464247
84.0105013127       -0.187594390533
84.5105638205       -0.181167852183
85.0106263283       -0.175275758981
85.5106888361       -0.169870083763
86.0107513439       -0.16490739046
86.5108138517       -0.160348398623
87.0108763595       -0.156157584071
87.5109388674       -0.152302814417
88.0110013752       -0.148755017681
88.511063883       -0.145487881891
89.0111263908       -0.142477583398
89.5111888986       -0.139702541637
90.0112514064       -0.137143198046
90.5113139142       -0.134781817002
91.0113764221       -0.132602306709
91.5114389299       -0.130590058133
92.0115014377       -0.128731800228
92.5115639455       -0.127015469812
93.0116264533       -0.125430094634
93.5116889611       -0.123965688292
94.0117514689       -0.122613155761
94.5118139767       -0.121364208476
95.0118764846       -0.12021128795
95.5119389924       -0.119147497059
96.0120015002       -0.118166538197
96.512064008       -0.117262657582
97.0121265158       -0.116430595091
97.5121890236       -0.115665539031
98.0122515314       -0.114963085358
98.5123140393       -0.114319200872
99.0123765471       -0.11373018999
99.5124390549       -0.113192664724
100.012501563       -0.11270351755
100.512564071       -0.112259896858
101.012626578       -0.111859184741
101.512689086       -0.111498976878
102.012751594       -0.111177064308
102.512814102       -0.110891416901
103.01287661       -0.110640168372
103.512939117       -0.110421602666
104.013001625       -0.110234141606
104.513064133       -0.110076333662
105.013126641       -0.10994684374
105.513189149       -0.1098444439
106.013251656       -0.109768004906
106.513314164       -0.109716488532
107.013376672       -0.10968894056
107.51343918       -0.109684484397
108.013501688       -0.109702315259
108.513564196       -0.109741694874
109.013626703       -0.109801946647
109.513689211       -0.109882451256
110.013751719       -0.109982642635
110.513814227       -0.110102004316
111.013876735       -0.110240066089
111.513939242       -0.110396400969
112.01400175       -0.11057062242
112.514064258       -0.110762381846
113.014126766       -0.110971366299
113.514189274       -0.111197296402
114.014251781       -0.111439924471
114.514314289       -0.111699032809
115.014376797       -0.111974432174
115.514439305       -0.112265960399
116.014501813       -0.112573481157
116.514564321       -0.112896882859
117.014626828       -0.113236077685
117.514689336       -0.113591000725
118.014751844       -0.113961609239
118.514814352       -0.114347882025
119.01487686       -0.114749818884
119.514939367       -0.115167440185
120.015001875       -0.115600786532
120.515064383       -0.116049918509
121.015126891       -0.116514916529
121.515189399       -0.116995880763
122.015251906       -0.117492931163
122.515314414       -0.118006207566
123.015376922       -0.118535869894
123.51543943       -0.119082098438
124.015501938       -0.119645094236
124.515564446       -0.120225079548
125.015626953       -0.120822298419
125.515689461       -0.121437017357
126.015751969       -0.122069526103
126.515814477       -0.122720138522
127.015876985       -0.12338919361
127.515939492       -0.124077056626
128.016002       -0.124784120354
128.516064508       -0.125510806518
129.016127016       -0.126257567343
129.516189524       -0.127024887286
130.016252032       -0.127813284949
130.516314539       -0.128623315187
131.016377047       -0.129455571427
131.516439555       -0.130310688221
132.016502063       -0.131189344057
132.516564571       -0.132092264437
133.016627078       -0.133020225275
133.516689586       -0.133974056614
134.016752094       -0.13495464672
134.516814602       -0.135962946581
135.01687711       -0.136999974843
135.516939617       -0.138066823251
136.017002125       -0.139164662622
136.517064633       -0.140294749424
137.017127141       -0.141458433016
137.517189649       -0.142657163631
138.017252157       -0.14389250116
138.517314664       -0.145166124848
139.017377172       -0.146479843988
139.51743968       -0.147835609723
140.017502188       -0.149235528075
140.517564696       -0.150681874341
141.017627203       -0.152177109
141.517689711       -0.153723895295
142.017752219       -0.155325118667
142.517814727       -0.156983908247
143.017877235       -0.158703660611
143.517939742       -0.16048806604
144.01800225       -0.162341137533
144.518064758       -0.164267242835
145.018127266       -0.166271139778
145.518189774       -0.168358015203
146.018252282       -0.170533527777
146.518314789       -0.172803854968
147.018377297       -0.175175744454
147.518439805       -0.177656570149
148.018502313       -0.180254393006
148.518564821       -0.182978026558
149.018627328       -0.185837107038
149.518689836       -0.188842167604
150.018752344       -0.192004715819
150.518814852       -0.195337312996
151.01887736       -0.198853653279
151.518939867       -0.202568639321
152.019002375       -0.206498450029
152.519064883       -0.210660594065
153.019127391       -0.215073940353
153.519189899       -0.219758713694
154.019252407       -0.224736439522
154.519314914       -0.230029816642
155.019377422       -0.235662490256
155.51943993       -0.241658689635
156.019502438       -0.248042685295
156.519564946       -0.25483800971
157.019627453       -0.262066374073
157.519689961       -0.269746202592
158.019752469       -0.277890697633
158.519814977       -0.286505347579
159.019877485       -0.295584800386
159.519939992       -0.30510905785
160.0200025       -0.31503900931
160.520065008       -0.325311430915
161.020127516       -0.335833738176
161.520190024       -0.346478998395
162.020252532       -0.357081972542
162.520315039       -0.367437222216
163.020377547       -0.377300508398
163.520440055       -0.386394709615
164.020502563       -0.394421167571
164.520565071       -0.401076634109
165.020627578       -0.406074861953
165.520690086       -0.409170550063
166.020752594       -0.410182205929
166.520815102       -0.409009988142
167.02087761       -0.405645088779
167.520940118       -0.400168719795
168.021002625       -0.39274088335
168.521065133       -0.383581163891
169.021127641       -0.372945137085
169.521190149       -0.361100313615
170.021252657       -0.348304902303
170.521315164       -0.334791468462
171.021377672       -0.320756244671
171.52144018       -0.306353779265
172.021502688       -0.291695947837
172.521565196       -0.276854099057
173.021627703       -0.261863153634
173.521690211       -0.246726694172
174.021752719       -0.231422364571
174.521815227       -0.215907169221
175.021877735       -0.200122489315
175.521940243       -0.183998806516
176.02200275       -0.167460247672
176.522065258       -0.150429148251
177.022127766       -0.132830886439
177.522190274       -0.114599270349
178.022252782       -0.0956827680631
178.522315289       -0.0760518478393
179.022377797       -0.0557076303662
179.522440305       -0.0346919254506
180.022502813       -0.0130985059568
180.522565321       0.00891486393084
181.022627828       0.0311145960435
181.522690336       0.0531811750854
182.022752844       0.0747029514076
182.522815352       0.0951765289352
183.02287786       0.11401664292
183.522940368       0.130577982265
184.023002875       0.144190071165
184.523065383       0.154204012412
185.023127891       0.160046905566
185.523190399       0.161276831921
186.023252907       0.157629497544
186.523315414       0.149047903969
187.023377922       0.135689119622
187.52344043       0.117906763195
188.023502938       0.0962127951728
188.523565446       0.0712260543649
189.023627953       0.0436165950757
189.523690461       0.0140541257716
190.023752969       -0.0168335950754
190.523815477       -0.0484896216218
191.023877985       -0.0804439066603
191.523940493       -0.11231846027
192.024003       -0.143824339893
192.524065508       -0.17475334756
193.024128016       -0.204966930483
193.524190524       -0.234384183492
194.024253032       -0.262970233771
194.524315539       -0.290725759711
195.024378047       -0.317677997049
195.524440555       -0.343873315182
196.024503063       -0.369371282251
196.524565571       -0.394240051708
197.024628079       -0.418552869756
197.524690586       -0.442385502079
198.024753094       -0.465814394903
198.524815602       -0.488915410136
199.02487811       -0.511763000951
199.524940618       -0.534429719673
200.025003125       -0.55698597229
200.525065633       -0.579499953077
201.025128141       -0.602037708427
201.525190649       -0.624663291574
202.025253157       -0.647438979805
202.525315664       -0.670425533381
203.025378172       -0.693682481371
203.52544068       -0.717268424003
204.025503188       -0.741241344597
204.525565696       -0.765658926634
205.025628204       -0.790578873432
205.525690711       -0.816059229305
206.025753219       -0.842158702124
206.525815727       -0.868936987967
207.025878235       -0.896455099164
207.525940743       -0.924775697445
208.02600325       -0.953963434287
208.526065758       -0.984085300839
209.026128266       -1.01521099004
209.526190774       -1.0474132738
210.026253282       -1.08076839836
210.526315789       -1.11535650108
211.026378297       -1.1512620524
211.526440805       -1.18857432673
212.026503313       -1.22738790646
212.526565821       -1.26780322375
213.026628329       -1.30992714498
213.526690836       -1.35387360332
214.026753344       -1.39976428533
214.526815852       -1.44772937812
215.02687836       -1.4979083843
215.526940868       -1.55045101249
216.027003375       -1.60551815225
216.527065883       -1.66328294291
217.027128391       -1.72393194701
217.527190899       -1.78766643987
218.027253407       -1.85470382834
218.527315914       -1.92527921271
219.027378422       -1.99964710726
219.52744093       -2.07808333642
220.027503438       -2.16088712477
220.527565946       -2.24838340083
221.027628454       -2.34092533559
221.527690961       -2.43889713843
222.027753469       -2.54271713363
222.527815977       -2.65284114127
223.027878485       -2.7697661863
223.527940993       -2.89403455777
224.0280035       -3.02623823781
224.528066008       -3.16702371475
225.028128516       -3.31709718657
225.528191024       -3.47723014884
226.028253532       -3.64826534304
226.52831604       -3.83112301566
227.028378547       -4.02680740189
227.528441055       -4.23641329769
228.028503563       -4.46113251526
228.528566071       -4.70225992351
229.028628579       -4.96119865063
229.528691086       -5.23946385949
230.028753594       -5.53868428886
230.528816102       -5.86060046993
231.02887861       -6.20705816409
231.528941118       -6.57999510934
232.029003625       -6.98141859505
232.529066133       -7.41337070185
233.029128641       -7.87787724995
233.529191149       -8.37687562809
234.029253657       -8.91211580005
234.529316165       -9.48502805006
235.029378672       -10.0965506781
235.52944118       -10.7469112785
236.029503688       -11.435356998
236.529566196       -12.1598330244
237.029628704       -12.9166154198
237.529691211       -13.6999151548
238.029753719       -14.5014853618
238.529816227       -15.3102829484
239.029878735       -16.1122565855
239.529941243       -16.8903508419
240.03000375       -17.6248230432
240.530066258       -18.2939553977
241.030128766       -18.8752011601
241.530191274       -19.3467274454
242.030253782       -19.6892182136
242.53031629       -19.8877033172
243.030378797       -19.933118204
243.530441305       -19.823306066
244.030503813       -19.5632621374
244.530566321       -19.1645696606
245.030628829       -18.6441430902
245.530691336       -18.0225233484
246.030753844       -17.3220258765
246.530816352       -16.5650189657
247.03087886       -15.7725295724
247.530941368       -14.963271793
248.031003875       -14.1531011959
248.531066383       -13.3548347117
249.031128891       -12.578344755
249.531191399       -11.8308318028
250.031253907       -11.1171919771
250.531316415       -10.4404159595
251.031378922       -9.80197615943
251.53144143       -9.20217673539
252.031503938       -8.64045444001
252.531566446       -8.11562735024
253.031628954       -7.62609408629
253.531691461       -7.16998903679
254.031753969       -6.74530025193
254.531816477       -6.34995672229
255.031878985       -5.98189121955
255.531941493       -5.63908406279
256.032004001       -5.31959228984
256.532066508       -5.02156787066
257.032129016       -4.74326785302
257.532191524       -4.48305870012
258.032254032       -4.23941656482
258.53231654       -4.01092483637
259.032379047       -3.79626997888
259.532441555       -3.59423644071
260.032504063       -3.40370123811
260.532566571       -3.22362869101
