#  x                 y             frequency           intensity
0.0       9.87650063886e-18       70.88       1.09793
0.500062507813       1.71504408137e-17       239.66       1.26062
1.00012501563       2.96654261193e-17       255.61       1.55974
1.50018752344       5.11127217692e-17       282.31       27.67462
2.00025003125       8.7722406611e-17       339.09       12.02530
2.50031253907       1.49966819361e-16       392.52       1.09474
3.00037504688       2.55377679545e-16       532.10       2.04829
3.50043755469       4.33185394518e-16       638.65       7.13163
4.00050006251       7.31927032077e-16       744.01       14.98683
4.50056257032       1.23187000869e-15       801.68       9.64199
5.00062507813       2.06521413927e-15       845.29       80.66251
5.50068758595       3.44880318174e-15       873.59       78.83455
6.00075009376       5.73686782807e-15       940.49       37.61405
6.50081260158       9.50570628563e-15       1015.05       1.06535
7.00087510939       1.56890645825e-14       1059.16       33.28068
7.5009376172       2.57936512446e-14       1130.67       11.97444
8.00100012502       4.22407586078e-14       1206.44       16.48133
8.50106263283       6.89054713446e-14       1271.96       3.37577
9.00112514064       1.11964106713e-13       1335.32       10.19480
9.50118764846       1.81220383095e-13       1360.51       32.03991
10.0012501563       2.9217185762e-13       1406.82       135.52512
10.5013126641       4.69216021093e-13       1414.03       231.15473
11.0013751719       7.50603173108e-13       1497.37       6.34034
11.5014376797       1.19605478432e-12       1500.88       8.41057
12.0015001875       1.89843119762e-12       1658.56       38.66610
12.5015626953       3.00152361611e-12       1840.19       319.86387
13.0016252032       4.72706724375e-12       3033.58       10.80049
13.501687711       7.41557631786e-12       3037.80       23.23139
14.0017502188       1.15878042549e-11       3095.35       23.70190
14.5018127266       1.80368421621e-11       3131.38       6.73839
15.0018752344       2.79655247122e-11       3453.27       244.11752
15.5019377422       4.31905319297e-11       3507.90       0.76343
16.00200025       6.64442259247e-11       3584.52       9.46047
16.5020627578       1.01819052829e-10
17.0021252657       1.55418950556e-10
17.5021877735       2.36309947951e-10
18.0022502813       3.57901196206e-10
18.5023127891       5.39942369787e-10
19.0023752969       8.1139958206e-10
19.5024378047       1.21457759074e-09
20.0025003125       1.81100171402e-09
20.5025628204       2.6897726399e-09
21.0026253282       3.97937983585e-09
21.502687836       5.86432905673e-09
22.0027503438       8.60843848788e-09
22.5028128516       1.25873278152e-08
23.0028753594       1.83335183696e-08
23.5029378672       2.65987486948e-08
24.003000375       3.84396750302e-08
24.5030628829       5.53351793211e-08
25.0031253907       7.9346184696e-08
25.5031878985       1.13332348659e-07
26.0032504063       1.61244474852e-07
26.5033129141       2.28517207504e-07
27.0033754219       3.22593852813e-07
27.5034379297       4.53624371551e-07
28.0035004376       6.35389135594e-07
28.5035629454       8.86515437574e-07
29.0036254532       1.23207156264e-06
29.503687961       1.70564512698e-06
30.0037504688       2.35203908766e-06
30.5038129766       3.2307511297e-06
31.0038754844       4.42044089291e-06
31.5039379922       6.02463560135e-06
32.0040005001       8.17897899428e-06
32.5040630079       1.10603918817e-05
33.0041255157       1.48985859144e-05
33.5041880235       1.99904558508e-05
34.0042505313       2.67179700411e-05
34.5043130391       3.55702839789e-05
35.0043755469       4.71709170351e-05
35.5044380548       6.23109566811e-05
36.0045005626       8.19893856096e-05
36.5045630704       0.000107461762159
37.0046255782       0.000140298619165
37.504688086       0.000182455075285
38.0047505938       0.000236353268924
38.5048131016       0.000304979319493
39.0048756095       0.000391996583419
39.5049381173       0.00050187699102
40.0050006251       0.000640052211171
40.5050631329       0.00081308627836
41.0051256407       0.00102887111467
41.5051881485       0.00129684607024
42.0052506563       0.00162824217237
42.5053131641       0.00203635119906
43.005375672       0.00253681896227
43.5054381798       0.00314796128753
44.0055006876       0.00389110010176
44.5055631954       0.00479091578777
45.0056257032       0.00587581053691
45.505688211       0.00717827584465
46.0057507188       0.00873525557025
46.5058132267       0.0105884941578
47.0058757345       0.0127848577385
47.5059382423       0.0153766139633
48.0060007501       0.0184216546282
48.5060632579       0.0219836435325
49.0061257657       0.0261320706551
49.5061882735       0.0309421927511
50.0062507813       0.0364948399705
50.5063132892       0.0428760681969
51.006375797       0.0501766376097
51.5064383048       0.0584912995822
52.0065008126       0.0679178765357
52.5065633204       0.0785561228262
53.0066258282       0.0905063591909
53.506688336       0.103867878715
54.0067508439       0.118737128657
54.5068133517       0.135205679692
55.0068758595       0.153358002085
55.5069383673       0.173269076738
56.0070008751       0.195001877811
56.5070633829       0.218604772329
57.0071258907       0.244108890579
57.5071883985       0.271525528787
58.0072509064       0.300843652208
58.5073134142       0.332027571932
59.007375922       0.365014872105
59.5074384298       0.399714665492
60.0075009376       0.436006254135
60.5075634454       0.473738268082
61.0076259532       0.512728348564
61.5076884611       0.552763432696
62.0077509689       0.593600684708
62.5078134767       0.634969104201
63.0078759845       0.676571825195
63.5079384923       0.718089101262
64.0080010001       0.759181952401
64.5080635079       0.799496429012
65.0081260158       0.838668428229
65.5081885236       0.876328978509
66.0082510314       0.912109890725
66.5083135392       0.94564965853
67.008376047       0.976599478371
67.5084385548       1.00462925066
68.0085010626       1.02943341874
68.5085635704       1.05073650186
69.0086260783       1.06829818233
69.5086885861       1.08191781571
70.0087510939       1.09143824579
70.5088136017       1.09674882275
71.0088761095       1.0977875438
71.5089386173       1.09454225807
72.0090011251       1.0870509032
72.509063633       1.07540076717
73.0091261408       1.05972679537
73.5091886486       1.04020898893
74.0092511564       1.01706896431
74.5093136642       0.990565766232
75.009376172       0.960991044386
75.5094386798       0.928663719439
76.0095011876       0.893924274542
76.5095636955       0.857128814715
77.0096262033       0.818643038272
77.5096887111       0.778836261648
78.0097512189       0.738075632045
78.5098137267       0.696720651519
79.0098762345       0.655118122109
79.5099387423       0.613597604903
80.0100012502       0.572467467318
80.510063758       0.532011573017
81.0101262658       0.492486648638
81.5101887736       0.454120341417
82.0102512814       0.417109962722
82.5103137892       0.381621894845
83.010376297       0.347791622794
83.5104388049       0.315724339529
84.0105013127       0.285496062418
84.5105638205       0.257155190796
85.0106263283       0.23072442936
85.5106888361       0.206202999735
86.0107513439       0.183569062613
86.5108138517       0.162782275287
87.0108763595       0.143786413732
87.5109388674       0.126511994368
88.0110013752       0.110878837863
88.511063883       0.0967985254442
89.0111263908       0.0841767067629
89.5111888986       0.0729152271558
90.0112514064       0.0629140507475
90.5113139142       0.0540729640633
91.0113764221       0.0462930524131
91.5114389299       0.0394779481087
92.0115014377       0.033534855475
92.5115639455       0.0283753625468
93.0116264533       0.0239160532793
93.5116889611       0.0200789370593
94.0117514689       0.0167917143404
94.5118139767       0.0139878984108
95.0118764846       0.0116068137242
95.5119389924       0.00959349100346
96.0120015002       0.00789847856056
96.512064008       0.00647758808857
97.0121265158       0.00529159167653
97.5121890236       0.00430588507905
98.0122515314       0.00349013043226
98.5123140393       0.00281788972555
99.0123765471       0.00226625848167
99.5124390549       0.00181550732048
100.012501563       0.00144873742498
100.512564071       0.00115155442158
101.012626578       0.000911763847837
101.512689086       0.00071909021964
102.012751594       0.000564920726288
102.512814102       0.000442073771399
103.01287661       0.000344591929166
103.512939117       0.000267558385848
104.013001625       0.00020693556923
104.513064133       0.00015942441711
105.013126641       0.000122342582181
105.513189149       9.35197980411e-05
106.013251656       7.12086235484e-05
106.513314164       5.40088257105e-05
107.013376672       4.08037418617e-05
107.51343918       3.07070687326e-05
108.013501688       2.30186496954e-05
108.513564196       1.71879641587e-05
109.013626703       1.27841585464e-05
109.513689211       9.47159172986e-06
110.013751719       6.98999563027e-06
110.513814227       5.13847149688e-06
111.013876735       3.76265251327e-06
111.513939242       2.74446303686e-06
112.01400175       1.9939936572e-06
112.514064258       1.44308951756e-06
113.014126766       1.04031745302e-06
113.514189274       7.47036135677e-07
114.014251781       5.34343398768e-07
114.514314289       3.80717114286e-07
115.014376797       2.70201318826e-07
115.514439305       1.91018593022e-07
116.014501813       1.3451382808e-07
116.514564321       9.43542215014e-08
117.014626828       6.59263227235e-08
117.514689336       4.58838109233e-08
118.014751844       3.18099673852e-08
118.514814352       2.19669660674e-08
119.01487686       1.511054218e-08
119.514939367       1.03536416328e-08
120.015001875       7.06658070274e-09
120.515064383       4.80428353608e-09
121.015126891       3.25350179491e-09
121.515189399       2.19470717734e-09
122.015251906       1.47470526291e-09
122.515314414       9.87045082957e-10
123.015376922       6.58069649808e-10
123.51543943       4.37028587729e-10
124.015501938       2.89101899375e-10
124.515564446       1.90500077249e-10
125.015626953       1.25038132957e-10
125.515689461       8.17509705648e-11
126.015751969       5.32410323021e-11
126.515814477       3.45384728251e-11
127.015876985       2.23183922799e-11
127.515939492       1.43656670206e-11
128.016002       9.21068219814e-12
128.516064508       5.88248614385e-12
129.016127016       3.74225296281e-12
129.516189524       2.37142001979e-12
130.016252032       1.49687982815e-12
130.516314539       9.41170926211e-13
131.016377047       5.89458429743e-13
131.516439555       3.67740088116e-13
132.016502063       2.28524033965e-13
132.516564571       1.41457474657e-13
133.016627078       8.72213958342e-14
133.516689586       5.35702011926e-14
134.016752094       3.27737876384e-14
134.516814602       1.99725311043e-14
135.01687711       1.21239096157e-14
135.516939617       7.33086778403e-15
136.017002125       4.41541162433e-15
136.517064633       2.6490497799e-15
137.017127141       1.58311387505e-15
137.517189649       9.42404397582e-16
138.017252157       5.58811796867e-16
138.517314664       3.30063074309e-16
139.017377172       1.94192041866e-16
139.51743968       1.13807014052e-16
140.017502188       6.64369585762e-17
140.517564696       3.86325672525e-17
141.017627203       2.23769302917e-17
141.517689711       1.29107229462e-17
142.017752219       7.41999695821e-18
142.517814727       4.24776034125e-18
143.017877235       2.42225241437e-18
143.517939742       1.37588425891e-18
144.01800225       7.78480107671e-19
144.518064758       4.38749111677e-19
145.018127266       2.46313430989e-19
145.518189774       1.37740942467e-19
146.018252282       7.67257460025e-20
146.518314789       4.25718283387e-20
147.018377297       2.3529169477e-20
147.518439805       1.29537051306e-20
148.018502313       7.10369865642e-21
148.518564821       3.88041496952e-21
149.018627328       2.1114215217e-21
149.518689836       1.14439222601e-21
150.018752344       6.17843135344e-22
150.518814852       3.32265793599e-22
151.01887736       1.77991708973e-22
151.518939867       9.49796477958e-23
152.019002375       5.04911225873e-23
152.519064883       2.67480186438e-23
153.019127391       1.41376332916e-23
153.519189899       7.48832635478e-24
154.019252407       4.03881347801e-24
154.519314914       2.33974850612e-24
155.019377422       1.67017512203e-24
155.51943993       1.74429398794e-24
156.019502438       2.59452491664e-24
156.519564946       4.5851191461e-24
157.019627453       8.56179491999e-24
157.519689961       1.61961892666e-23
158.019752469       3.0659267236e-23
158.519814977       5.78829778918e-23
159.019877485       1.08889728192e-22
159.519939992       2.04063137966e-22
160.0200025       3.80939156207e-22
160.520065008       7.08357565782e-22
161.020127516       1.31205882809e-21
161.520190024       2.4207915155e-21
162.020252532       4.4490228376e-21
162.520315039       8.14469843261e-21
163.020377547       1.48521216927e-20
163.520440055       2.69777113362e-20
164.020502563       4.88117997582e-20
164.520565071       8.7972645391e-20
165.020627578       1.57933258309e-19
165.520690086       2.82424684357e-19
166.020752594       5.03077416226e-19
166.520815102       8.92627175268e-19
167.02087761       1.57764214738e-18
167.520940118       2.77747404227e-18
168.021002625       4.87073644396e-18
168.521065133       8.50829158749e-18
169.021127641       1.48044818841e-17
169.521190149       2.56594399787e-17
170.021252657       4.43000531547e-17
170.521315164       7.61841162592e-17
171.021377672       1.30505175144e-16
171.52144018       2.22686631871e-16
172.021502688       3.78498072726e-16
172.521565196       6.40820374347e-16
173.021627703       1.08071719941e-15
173.521690211       1.81547773964e-15
174.021752719       3.03789602933e-15
174.521815227       5.06358374869e-15
175.021877735       8.40709977334e-15
175.521940243       1.39039282778e-14
176.02200275       2.29050871879e-14
176.522065258       3.7586292815e-14
177.022127766       6.14370210459e-14
177.522190274       1.00030840828e-13
178.022252782       1.622335989e-13
178.522315289       2.62090209958e-13
179.022377797       4.21758562449e-13
179.522440305       6.76052045513e-13
180.022502813       1.07944238611e-12
180.522565321       1.71680874552e-12
181.022627828       2.71986582376e-12
181.522690336       4.2921625063e-12
182.022752844       6.74695706679e-12
182.522815352       1.05643516849e-11
183.02287786       1.64771034283e-11
183.522940368       2.5598940984e-11
184.023002875       3.96156005878e-11
184.523065383       6.10679868938e-11
185.023127891       9.3770034817e-11
185.523190399       1.43422624425e-10
186.023252907       2.18511534909e-10
186.523315414       3.3161501384e-10
187.023377922       5.01299322024e-10
187.52344043       7.54854354749e-10
188.023502938       1.13222392575e-09
188.523565446       1.69162699538e-09
189.023627953       2.5175610018e-09
189.523690461       3.73214505392e-09
190.023752969       5.51112351109e-09
190.523815477       8.1063414252e-09
191.023877985       1.18771641116e-08
191.523940493       1.7334197576e-08
192.024003       2.51998437187e-08
192.524065508       3.64917821466e-08
193.024128016       5.26375202607e-08
193.524190524       7.56308345998e-08
194.024253032       1.08244412816e-07
194.524315539       1.54317511386e-07
195.024378047       2.19143231259e-07
195.524440555       3.0998739957e-07
196.024503063       4.36780411292e-07
196.524565571       6.13035182361e-07
197.024628079       8.57059126266e-07
197.524690586       1.19354640444e-06
198.024753094       1.65565932045e-06
198.524815602       2.28773542129e-06
199.02487811       3.14879051136e-06
199.524940618       4.31702832713e-06
200.025003125       5.89561606472e-06
200.525065633       8.02004232982e-06
201.025128141       1.08674413976e-05
201.525190649       1.4668345869e-05
202.025253157       1.97214196698e-05
202.525315664       2.64118254104e-05
203.025378172       3.52339945804e-05
203.52544068       4.68196955872e-05
204.025503188       6.1972432294e-05
204.525565696       8.1709352668e-05
205.025628204       0.00010731200059
205.525690711       0.000140387399759
206.025753219       0.000182941111447
206.525815727       0.000237464050531
207.025878235       0.000307034967821
207.525940743       0.000395440600395
208.02600325       0.000507315542641
208.526065758       0.000648303884196
209.026128266       0.000825244580383
209.526190774       0.00104638234795
210.026253282       0.00132160559462
210.526315789       0.00166271247559
211.026378297       0.00208370560398
211.526440805       0.00260111520768
212.026503313       0.00323434960676
212.526565821       0.0040060707717
213.026628329       0.00494259140848
213.526690836       0.00607428850333
214.026753344       0.00743602655888
214.526815852       0.00906758188678
215.02687836       0.0110140573236
215.526940868       0.013326274657
216.027003375       0.0160611299473
216.527065883       0.0192818948912
217.027128391       0.0230584454819
217.527190899       0.0274673975926
218.027253407       0.0325921278549
218.527315914       0.0385226574542
219.027378422       0.0453553763477
219.52744093       0.0531925860549
220.027503438       0.0621418407012
220.527565946       0.0723150685067
221.027628454       0.083827459506
221.527690961       0.0967961099893
222.027753469       0.111338420002
222.527815977       0.127570247184
223.027878485       0.145603828188
223.527940993       0.165545487736
224.0280035       0.187493164871
224.528066008       0.211533795827
225.028128516       0.237740602903
225.528191024       0.266170348377
226.028253532       0.296860621413
226.52831604       0.329827233677
227.028378547       0.36506180552
227.528441055       0.402529628637
228.028503563       0.442167892681
228.528566071       0.483884362016
229.028628579       0.52755658434
229.528691086       0.573031705092
230.028753594       0.620126950347
230.528816102       0.668630826258
231.02887861       0.718305065357
231.528941118       0.768887329422
232.029003625       0.820094655709
232.529066133       0.87162760883
233.029128641       0.923175075114
233.529191149       0.974419610932
234.029253657       1.02504323206
234.529316165       1.0747335088
235.029378672       1.12318981208
235.52944118       1.17012954072
236.029503688       1.2152941489
236.529566196       1.25845478874
237.029628704       1.29941738342
237.529691211       1.33802695458
238.029753719       1.37417104194
238.529816227       1.40778207419
239.029878735       1.43883857717
239.529941243       1.4673651383
240.03000375       1.49343108281
240.530066258       1.51714785838
241.030128766       1.53866516734
241.530191274       1.55816592866
242.030253782       1.57586019472
242.53031629       1.59197818779
243.030378797       1.60676265699
243.530441305       1.62046078749
244.030503813       1.63331591778
244.530566321       1.64555933712
245.030628829       1.65740244384
245.530691336       1.66902954433
246.030753844       1.6805915631
246.530816352       1.69220091631
247.03087886       1.70392777464
247.530941368       1.71579790837
248.031003875       1.72779226741
248.531066383       1.73984840526
249.031128891       1.75186380795
249.531191399       1.7637011402
250.031253907       1.77519537184
250.531316415       1.78616270014
251.031378922       1.79641113938
251.53144143       1.80575260885
252.031503938       1.81401631593
252.531566446       1.82106320196
253.031628954       1.82680119649
253.531691461       1.83120100918
254.031753969       1.83431217883
254.531816477       1.83627909408
255.031878985       1.83735670025
255.531941493       1.83792560924
256.032004001       1.83850633486
256.532066508       1.83977238092
257.032129016       1.84256191484
257.532191524       1.84788776243
258.032254032       1.85694546092
258.53231654       1.87111910489
259.032379047       1.89198471555
