#  x                 y             frequency           intensity
0.0       1.29466591427e-13       62.38       2.06504
0.500062507813       2.10371271409e-13       213.20       44.17237
1.00012501563       3.40500898473e-13       241.27       1.54436
1.50018752344       5.48975806918e-13       248.85       4.04779
2.00025003125       8.81639951994e-13       313.00       0.34480
2.50031253907       1.41036795483e-12       374.08       2.10505
3.00037504688       2.24738104822e-12       503.53       23.22437
3.50043755469       3.56717248667e-12       602.15       70.06717
4.00050006251       5.63994174429e-12       636.77       25.40040
4.50056257032       8.88235731056e-12       763.32       31.88644
5.00062507813       1.39342941438e-11       795.57       47.46780
5.50068758595       2.17743310429e-11       845.66       153.31894
6.00075009376       3.38928259786e-11       919.76       9.38032
6.50081260158       5.25501373072e-11       1034.99       6.28571
7.00087510939       8.11601874609e-11       1083.31       14.91780
7.5009376172       1.24857702955e-10       1140.24       269.51763
8.00100012502       1.91333384204e-10       1173.80       3.27163
8.50106263283       2.92058115399e-10       1236.32       23.49999
9.00112514064       4.44069470526e-10       1317.57       10.67079
9.50118764846       6.72567175785e-10       1353.29       13.57421
10.0012501563       1.01466699122e-09       1400.12       2.51998
10.5013126641       1.52480570974e-09       1434.12       18.49081
11.0013751719       2.28248850892e-09       1493.24       7.12461
11.5014376797       3.40334364322e-09       1503.02       11.49072
12.0015001875       5.05482493546e-09       1641.20       67.62600
12.5015626953       7.47841476888e-09       1813.68       270.69532
13.0016252032       1.10208753542e-08       3030.26       16.99887
13.501687711       1.61780340714e-08       3040.19       15.49431
14.0017502188       2.36558476123e-08       3099.50       21.95068
14.5018127266       3.44551698371e-08       3105.32       24.52211
15.0018752344       4.99888779972e-08       3490.81       5.35656
15.5019377422       7.22429540525e-08       3574.28       7.63225
16.00200025       1.03996977224e-07       3721.95       63.55860
16.5020627578       1.49124516761e-07
17.0021252657       2.13000437463e-07
17.5021877735       3.03050534577e-07
18.0022502813       4.29489673688e-07
18.5023127891       6.06308297145e-07
19.0023752969       8.5258445397e-07
19.5024378047       1.19422022067e-06
20.0025003125       1.66622844554e-06
20.5025628204       2.3157292504e-06
21.0026253282       3.2058568885e-06
21.502687836       4.42082775499e-06
22.0027503438       6.07248107627e-06
22.5028128516       8.30867667245e-06
23.0028753594       1.13240208634e-05
23.5029378672       1.53734937523e-05
24.003000375       2.07896703743e-05
24.5030628829       2.80043659597e-05
25.0031253907       3.7575692934e-05
25.5031878985       5.02216948545e-05
26.0032504063       6.68619201765e-05
26.5033129141       8.86685154982e-05
27.0033754219       0.000117128651489
27.5034379297       0.000154120341262
28.0035004376       0.000202003964859
28.5035629454       0.000263732066899
29.0036254532       0.000342980236986
29.503687961       0.000444302100838
30.0037504688       0.000573311628165
30.5038129766       0.000736896081377
31.0038754844       0.000943462964544
31.5039379922       0.00120322425863
32.0040005001       0.00152852101803
32.5040630079       0.00193419102379
33.0041255157       0.00243798160825
33.5041880235       0.00306100895124
34.0042505313       0.00382826406803
34.5043130391       0.00476916433633
35.0043755469       0.00591814771982
35.5044380548       0.00731530482471
36.0045005626       0.00900704156972
36.5045630704       0.011046762566
37.0046255782       0.01349556232
37.504688086       0.0164229081307
38.0047505938       0.0199072951238
38.5048131016       0.0240368503309
39.0048756095       0.0289098592087
39.5049381173       0.0346351846261
40.0050006251       0.0413325452982
40.5050631329       0.0491326180978
41.0051256407       0.0581769268214
41.5051881485       0.0686174790438
42.0052506563       0.0806161128769
42.5053131641       0.094343516955
43.005375672       0.109977889998
43.5054381798       0.127703211008
44.0055006876       0.147707097666
44.5055631954       0.170178238845
45.0056257032       0.195303397382
45.505688211       0.223263991246
46.0057507188       0.25423227481
46.5058132267       0.28836715689
47.0058757345       0.325809708078
47.5059382423       0.366678426365
48.0060007501       0.411064346424
48.5060632579       0.459026093723
49.0061257657       0.510584999095
49.5061882735       0.56572040188
50.0062507813       0.624365279512
50.5063132892       0.686402347771
51.006375797       0.751660778294
51.5064383048       0.819913677717
52.0065008126       0.890876465694
52.5065633204       0.964206276716
53.0066258282       1.03950249308
53.506688336       1.11630849372
54.0067508439       1.19411467641
54.5068133517       1.27236277909
55.0068758595       1.35045149176
55.5069383673       1.42774331316
56.0070008751       1.50357256828
56.5070633829       1.57725446512
57.0071258907       1.64809503249
57.5071883985       1.71540174766
58.0072509064       1.77849463327
58.5073134142       1.83671757989
59.007375922       1.88944963364
59.5074384298       1.93611597937
60.0075009376       1.97619834881
60.5075634454       2.00924459083
61.0076259532       2.03487715701
61.5076884611       2.05280027986
62.0077509689       2.06280565314
62.5078134767       2.06477646149
63.0078759845       2.0586896506
63.5079384923       2.04461637606
64.0080010001       2.02272061884
64.5080635079       1.9932560049
65.0081260158       1.95656091535
65.5081885236       1.91305201874
66.0082510314       1.86321639859
66.5083135392       1.8076024838
67.008376047       1.74681001802
67.5084385548       1.68147932403
68.0085010626       1.61228013101
68.5085635704       1.53990023573
69.0086260783       1.46503426371
69.5086885861       1.38837278305
70.0087510939       1.3105920036
70.5088136017       1.23234426764
71.0088761095       1.15424950687
71.5089386173       1.07688780542
72.0090011251       1.00079317149
72.509063633       0.926448581778
73.0091261408       0.854282325443
73.5091886486       0.78466563813
74.0092511564       0.717911583681
74.5093136642       0.654275111518
75.009376172       0.593954192823
75.5094386798       0.537091918524
76.0095011876       0.483779427201
76.5095636955       0.434059521405
77.0096262033       0.38793082627
77.5096887111       0.34535234451
78.0097512189       0.306248266349
78.5098137267       0.270512901142
79.0098762345       0.238015608626
79.5099387423       0.20860562139
80.0100012502       0.182116665335
80.510063758       0.158371301085
81.0101262658       0.137184925816
81.5101887736       0.118369391173
82.0102512814       0.101736208405
82.5103137892       0.0870993261337
83.010376297       0.0742774789669
83.5104388049       0.0630961162642
84.0105013127       0.0533889296441
84.5105638205       0.0449990052236
85.0106263283       0.0377796321572
85.5106888361       0.0315948028735
86.0107513439       0.0263194426348
86.5108138517       0.0218394068518
87.0108763595       0.0180512841614
87.5109388674       0.0148620418464
88.0110013752       0.012188547936
88.511063883       0.00995700150046
89.0111263908       0.00810229941943
89.5111888986       0.00656736444324
90.0112514064       0.00530245582563
90.5113139142       0.0042644803142
91.0113764221       0.00341631794153
91.5114389299       0.00272617394355
92.0115014377       0.00216696529691
92.5115639455       0.00171574784894
93.0116264533       0.00135318782861
93.5116889611       0.00106307967646
94.0117514689       0.000831910606258
94.5118139767       0.000648471091112
95.0118764846       0.000503509526213
95.5119389924       0.000389428629572
96.0120015002       0.000300020668205
96.512064008       0.000230238307791
97.0121265158       0.000175997746971
97.5121890236       0.000134010783047
98.0122515314       0.000101642536516
98.5123140393       7.67917132616e-05
99.0123765471       5.77904841137e-05
99.5124390549       4.33212940682e-05
100.012501563       3.23481629886e-05
100.512564071       2.40602944086e-05
101.012626578       1.78260600298e-05
101.512689086       1.31556680061e-05
102.012751594       9.67104844166e-06
102.512814102       7.08169674176e-06
103.01287661       5.16540292998e-06
103.512939117       3.75296225852e-06
104.013001625       2.71610967408e-06
104.513064133       1.95804884219e-06
105.013126641       1.40605675816e-06
105.513189149       1.00573901213e-06
106.013251656       7.16590182455e-07
106.513314164       5.08580288954e-07
107.013376672       3.59543388865e-07
107.51343918       2.53189798906e-07
108.013501688       1.77600511865e-07
108.513564196       1.24092443237e-07
109.013626703       8.63673452815e-08
109.513689211       5.98765706718e-08
110.013751719       4.13492255776e-08
110.513814227       2.84433636855e-08
111.013876735       1.94893628608e-08
111.513939242       1.33020152605e-08
112.01400175       9.04357937892e-09
112.514064258       6.12443995432e-09
113.014126766       4.13138359045e-09
113.514189274       2.77605312126e-09
114.014251781       1.85807456104e-09
114.514314289       1.23880119471e-09
115.014376797       8.22703237981e-10
115.514439305       5.44236807848e-10
116.014501813       3.58621008651e-10
116.514564321       2.35389267664e-10
117.014626828       1.53900737415e-10
117.514689336       1.00230029172e-10
118.014751844       6.50216709182e-11
118.514814352       4.20166581939e-11
119.01487686       2.70450633256e-11
119.514939367       1.7340340079e-11
120.015001875       1.10746582046e-11
120.515064383       7.04540827996e-12
121.015126891       4.46462629071e-12
121.515189399       2.81816990129e-12
122.015251906       1.77195359892e-12
122.515314414       1.10978954961e-12
123.015376922       6.92360096486e-13
123.51543943       4.30255609898e-13
124.015501938       2.66332500415e-13
124.515564446       1.64219567569e-13
125.015626953       1.00862273908e-13
125.515689461       6.17071826979e-14
126.015751969       3.76050175308e-14
126.515814477       2.28275333124e-14
127.015876985       1.38030572091e-14
127.515939492       8.31370679502e-15
128.016002       4.98789420325e-15
128.516064508       2.98086890669e-15
129.016127016       1.7744821636e-15
129.516189524       1.05221267225e-15
130.016252032       6.21496346094e-16
130.516314539       3.65659536585e-16
131.016377047       2.14298367418e-16
131.516439555       1.25102394823e-16
132.016502063       7.27479883468e-17
132.516564571       4.21402694398e-17
133.016627078       2.43183834796e-17
133.516689586       1.39850313115e-17
134.016752094       8.02242845152e-18
134.516814602       4.60494119524e-18
135.01687711       2.67140740549e-18
135.516939617       1.61389491841e-18
136.017002125       1.09710126507e-18
136.517064633       9.57958263719e-19
137.017127141       1.15720574879e-18
137.517189649       1.76948971108e-18
138.017252157       3.00987202823e-18
138.517314664       5.30564762635e-18
139.017377172       9.43618305488e-18
139.51743968       1.67840817697e-17
140.017502188       2.97742034382e-17
140.517564696       5.26322247177e-17
141.017627203       9.26867167074e-17
141.517689711       1.62593097558e-16
142.017752219       2.84115327514e-16
142.517814727       4.94529068961e-16
143.017877235       8.57417923075e-16
143.517939742       1.48080047206e-15
144.01800225       2.54743837745e-15
144.518064758       4.36529860445e-15
145.018127266       7.45121925838e-15
145.518189774       1.26690439802e-14
146.018252282       2.14567261253e-14
146.518314789       3.61981341407e-14
147.018377297       6.08291888597e-14
147.518439805       1.01821848842e-13
148.018502313       1.69774728541e-13
148.518564821       2.81973453826e-13
149.018627328       4.66494487485e-13
149.518689836       7.68754943021e-13
150.018752344       1.2619217897e-12
150.518814852       2.0633840568e-12
151.01887736       3.36070826977e-12
151.518939867       5.45236186724e-12
152.019002375       8.81133355466e-12
152.519064883       1.41840980561e-11
153.019127391       2.27438991512e-11
153.519189899       3.63271418729e-11
154.019252407       5.77963818947e-11
154.519314914       9.15952995005e-11
155.019377422       1.44593521562e-10
155.51943993       2.27367086133e-10
156.019502438       3.56130746462e-10
156.519564946       5.55641220954e-10
157.019627453       8.63540194029e-10
157.519689961       1.33682257163e-09
158.019752469       2.0614276441e-09
158.519814977       3.1663982337e-09
159.019877485       4.84469104475e-09
159.519939992       7.38362703563e-09
160.0200025       1.12092493247e-08
160.520065008       1.69506524757e-08
161.020127516       2.5532857641e-08
161.520190024       3.83102989199e-08
162.020252532       5.72578149207e-08
162.520315039       8.52426835037e-08
163.020377547       1.26410331121e-07
163.520440055       1.86728727514e-07
164.020502563       2.74753238031e-07
164.520565071       4.0269627663e-07
165.020627578       5.8791632789e-07
165.520690086       8.54981155196e-07
166.020752594       1.23851330408e-06
166.520815102       1.78709616469e-06
167.02087761       2.56861067075e-06
167.520940118       3.67749215568e-06
168.021002625       5.24455133345e-06
168.521065133       7.45020184768e-06
169.021127641       1.05421902821e-05
169.521190149       1.48592460917e-05
170.021252657       2.0862474213e-05
170.521315164       2.91768204902e-05
171.021377672       4.06455708031e-05
171.52144018       5.64016232714e-05
172.021502688       7.79602266212e-05
172.521565196       0.000107339037171
173.021627703       0.000147212744988
173.521690211       0.000201111191598
174.021752719       0.000273671883186
174.521815227       0.000370960129984
175.021877735       0.00050087274761
175.521940243       0.000673644367396
176.02200275       0.00090247894014
176.522065258       0.00120433298859
177.022127766       0.00160088155889
177.522190274       0.0021197026081
178.022252782       0.00279572068337
178.522315289       0.00367295610141
179.022377797       0.0048066312872
179.522440305       0.00626569128793
180.022502813       0.00813580049852
180.522565321       0.0105228820085
181.022627828       0.0135572693328
181.522690336       0.0173985421716
182.022752844       0.0222411177486
182.522815352       0.0283206666086
183.02287786       0.0359214158939
183.522940368       0.0453843933687
184.023002875       0.0571166511349
184.523065383       0.0716014883785
185.023127891       0.0894096669588
185.523190399       0.111211581641
186.023252907       0.137790307834
186.523315414       0.170055403621
187.023377922       0.209057289621
187.52344043       0.256001970194
188.023502938       0.312265793354
188.523565446       0.379409875583
189.023627953       0.459193743292
189.523690461       0.553587666903
190.023752969       0.664783089213
190.523815477       0.795200479993
191.023877985       0.947493887288
191.523940493       1.12455140675
192.024003       1.32949075794
192.524065508       1.56564914526
193.024128016       1.83656659608
193.524190524       2.14596201293
194.024253032       2.49770125583
194.524315539       2.8957566861
195.024378047       3.3441577581
195.524440555       3.84693244005
196.024503063       4.40803947898
196.524565571       5.03129179558
197.024628079       5.7202715975
197.524690586       6.47823812829
198.024753094       7.30802931519
198.524815602       8.21195893149
199.02487811       9.19171123665
199.524940618       10.2482353855
200.025003125       11.3816421924
200.525065633       12.5911060812
201.025128141       13.874775235
201.525190649       15.2296930611
202.025253157       16.651734101
202.525315664       18.1355574268
203.025378172       19.6745803681
203.52544068       21.2609751075
204.025503188       22.8856902601
204.525565696       24.5384990319
205.025628204       26.2080749262
205.525690711       27.8820952675
206.025753219       29.5473720477
206.525815727       31.1900087937
207.025878235       32.7955813423
207.525940743       34.3493396048
208.02600325       35.8364266509
208.526065758       37.2421107613
209.026128266       38.5520255243
209.526190774       39.7524126029
210.026253282       40.8303615094
210.526315789       41.7740405922
211.026378297       42.5729134972
211.526440805       43.2179355986
212.026503313       43.701725309
212.526565821       44.0187057651
213.026628329       44.165213121
213.526690836       44.1395685463
214.026753344       43.9421119962
214.526815852       43.57519685
215.02687836       43.0431455812
215.526940868       42.3521676833
216.027003375       41.5102420863
216.527065883       40.5269672412
217.027128391       39.4133828749
217.527190899       38.1817681088
218.027253407       36.8454211661
218.527315914       35.4184262516
219.027378422       33.915413361
219.52744093       32.3513167746
220.027503438       30.7411378054
220.527565946       29.0997170255
221.027628454       27.4415207061
221.527690961       25.7804455915
222.027753469       24.1296454231
222.527815977       22.5013818533
223.027878485       20.9069015832
223.527940993       19.3563407405
224.0280035       17.8586567235
224.528066008       16.4215869894
225.028128516       15.0516335912
225.528191024       13.7540716759
226.028253532       12.5329796725
226.52831604       11.391288515
227.028378547       10.3308469823
227.528441055       9.35250007939
228.028503563       8.45617734098
228.528566071       7.64098798418
229.028628579       6.90531998117
229.528691086       6.24694033226
230.028753594       5.66309409376
230.528816102       5.15060003166
231.02887861       4.70594111824
231.528941118       4.325348449
232.029003625       4.00487751905
232.529066133       3.74047614869
233.029128641       3.52804367747
233.529191149       3.36348134709
234.029253657       3.24273405856
234.529316165       3.16182391552
235.029378672       3.11687615039
235.52944118       3.10413817231
236.029503688       3.11999257746
236.529566196       3.16096502455
237.029628704       3.22372790416
237.529691211       3.30510072459
238.029753719       3.40204810218
238.529816227       3.51167618576
239.029878735       3.63122826736
239.529941243       3.75808023863
240.03000375       3.88973644926
240.530066258       4.02382641397
241.030128766       4.15810270153
241.530191274       4.29044022684
242.030253782       4.418837058
242.53031629       4.54141674693
243.030378797       4.65643209721
243.530441305       4.7622701985
244.030503813       4.85745848387
244.530566321       4.94067150758
245.030628829       5.0107380955
245.530691336       5.0666484907
246.030753844       5.10756110187
246.530816352       5.132808463
247.03087886       5.14190202772
247.530941368       5.13453545144
248.031003875       5.11058605581
248.531066383       5.0701142234
249.031128891       5.01336053256
249.531191399       4.94074051149
250.031253907       4.8528369643
250.531316415       4.75038989747
251.031378922       4.63428414991
251.53144143       4.50553490162
252.031503938       4.36527130161
252.531566446       4.21471851396
253.031628954       4.05517852834
253.531691461       3.88801011835
254.031753969       3.71460835436
254.531816477       3.53638408874
255.031878985       3.35474382846
255.531941493       3.17107039467
256.032004001       2.98670474156
256.532066508       2.80292926845
257.032129016       2.62095291188
257.532191524       2.44189825027
258.032254032       2.26679079432
258.53231654       2.09655057448
259.032379047       1.93198607421
259.532441555       1.773790497
260.032504063       1.62254029787
260.532566571       1.47869585823
261.032629079       1.3426041377
261.532691586       1.21450309931
262.032754094       1.0945276755
262.532816602       0.982717022445
263.03287911       0.879022799037
263.532941618       0.783318204119
264.033004126       0.695407510858
