#  x                 y             frequency           intensity
0.0       3.95254797754e-09       52.36       7.92171
0.500062507813       5.93887935256e-09       197.64       46.66757
1.00012501563       8.88863285826e-09       219.59       2.94009
1.50018752344       1.32516069698e-08       244.73       11.93421
2.00025003125       1.96791002468e-08       306.55       14.21030
2.50031253907       2.91101901618e-08       381.66       11.97475
3.00037504688       4.28931518376e-08       487.90       83.11052
3.50043755469       6.29555453356e-08       499.79       8.42699
4.00050006251       9.20413825589e-08       642.58       11.21924
4.50056257032       1.34040299625e-07       743.24       0.85128
5.00062507813       1.94442304351e-07       796.10       10.43806
5.50068758595       2.80963071262e-07       902.67       156.98247
6.00075009376       4.04399711333e-07       922.25       1.63828
6.50081260158       5.79796441041e-07       1020.82       1.23071
7.00087510939       8.28024842004e-07       1082.16       43.13018
7.5009376172       1.17791594509e-06       1127.72       51.08493
8.00100012502       1.66912302441e-06       1171.74       5.83738
8.50106263283       2.3559469565e-06       1268.98       206.45627
9.00112514064       3.31242292286e-06       1285.55       81.69376
9.50118764846       4.63905122e-06       1334.18       65.92706
10.0012501563       6.47165961276e-06       1407.28       1.95438
10.5013126641       8.99301419577e-06       1418.01       5.10347
11.0013751719       1.24479548413e-05       1487.72       7.18918
11.5014376797       1.71630252831e-05       1500.05       10.55439
12.0015001875       2.35718024857e-05       1673.98       28.21530
12.5015626953       3.22474113463e-05       1843.34       242.74930
13.0016252032       4.39440453871e-05       3006.37       23.19608
13.501687711       5.96497083588e-05       3039.02       14.63900
14.0017502188       8.06528517097e-05       3100.55       25.65677
14.5018127266       0.000108626114106       3123.12       12.45227
15.0018752344       0.000145730975759       3480.10       2.27342
15.5019377422       0.00019474782444       3548.53       3.91026
16.00200025       0.000259236691291       3769.98       37.47627
16.5020627578       0.000343734748618
17.0021252657       0.000453997559995
17.5021877735       0.000597292020309
18.0022502813       0.000782749897909
18.5023127891       0.00102179186229
19.0023752969       0.00132863280856
19.5024378047       0.00172088012327
20.0025003125       0.00222023721167
20.5025628204       0.00285332504956
21.0026253282       0.00365263464425
21.502687836       0.00465762299023
22.0027503438       0.0059159642733
22.5028128516       0.00748496659442
23.0028753594       0.00943316222512
23.5029378672       0.0118420762457
24.003000375       0.0148081742347
24.5030628829       0.0184449843669
25.0031253907       0.0228853827477
25.5031878985       0.0282840230119
26.0032504063       0.0348198821279
26.5033129141       0.0426988840063
27.0033754219       0.052156551029
27.5034379297       0.0634606211454
28.0035004376       0.0769135550041
28.5035629454       0.0928548440356
29.0036254532       0.111663016919
29.503687961       0.133757228999
30.0037504688       0.159598307567
30.5038129766       0.189689116255
31.0038754844       0.224574094756
31.5039379922       0.264837826661
32.0040005001       0.311102489041
32.5040630079       0.364024043402
33.0041255157       0.424287039494
33.5041880235       0.492597921753
34.0042505313       0.569676753371
34.5043130391       0.656247305338
35.0043755469       0.75302549726
35.5044380548       0.860706222979
36.0045005626       0.9799486464
36.5045630704       1.1113601103
37.0046255782       1.25547886209
37.504688086       1.41275586342
38.0047505938       1.58353601362
38.5048131016       1.76803917708
39.0048756095       1.96634146024
39.5049381173       2.17835723116
40.0050006251       2.40382241177
40.5050631329       2.64227959665
41.0051256407       2.89306556073
41.5051881485       3.15530170904
42.0052506563       3.42788799359
42.5053131641       3.70950077444
43.005375672       3.99859503381
43.5054381798       4.29341126479
44.0055006876       4.59198725044
44.5055631954       4.8921748282
45.0056257032       5.19166160076
45.505688211       5.48799741257
46.0057507188       5.77862526478
46.5058132267       6.06091619632
47.0058757345       6.33220751972
47.5059382423       6.58984367309
48.0060007501       6.83121883898
48.5060632579       7.05382039213
49.0061257657       7.25527217507
49.5061882735       7.43337656655
50.0062507813       7.58615430578
50.5063132892       7.71188106555
51.006375797       7.80911983028
51.5064383048       7.87674822966
52.0065008126       7.91398010074
52.5065633204       7.92038069965
53.0066258282       7.89587515115
53.506688336       7.84074990663
54.0067508439       7.75564717062
54.5068133517       7.64155244769
55.0068758595       7.49977554719
55.5069383673       7.33192555776
56.0070008751       7.13988046013
56.5070633829       6.92575218019
57.0071258907       6.69184799096
57.5071883985       6.44062924799
58.0072509064       6.17466848691
58.5073134142       5.89660592292
59.007375922       5.60910637091
59.5074384298       5.31481755367
60.0075009376       5.01633068714
60.5075634454       4.7161441293
61.0076259532       4.41663075853
61.5076884611       4.12000961234
62.0077509689       3.82832217413
62.5078134767       3.54341354914
63.0078759845       3.26691862642
63.5079384923       3.00025318604
64.0080010001       2.74460978379
64.5080635079       2.50095813382
65.0081260158       2.27004961396
65.5081885236       2.05242544261
66.0082510314       1.84842801949
66.5083135392       1.65821488637
67.008376047       1.48177474701
67.5084385548       1.31894498688
68.0085010626       1.16943015112
68.5085635704       1.03282087074
69.0086260783       0.908612771007
69.5086885861       0.796224947959
70.0087510939       0.69501765773
70.5088136017       0.604308925651
71.0088761095       0.52338984514
71.5089386173       0.451538398675
72.0090011251       0.388031692251
72.509063633       0.332156549297
73.0091261408       0.283218458927
73.5091886486       0.240548915686
74.0092511564       0.2035112233
74.5093136642       0.171504863052
75.009376172       0.143968548557
75.5094386798       0.120382103152
76.0095011876       0.100267304439
76.5095636955       0.0831878434397
77.0096262033       0.0687485440177
77.5096887111       0.0565939826188
78.0097512189       0.0464066396853
78.5098137267       0.0379047031923
79.0098762345       0.0308396323044
79.5099387423       0.0249935758529
80.0100012502       0.0201767267529
80.510063758       0.0162246800977
81.0101262658       0.0129958498678
81.5101887736       0.0103689872774
82.0102512814       0.00824083294924
82.5103137892       0.00652392549422
83.010376297       0.00514458074048
83.5104388049       0.00404104880424
84.0105013127       0.00316185038976
84.5105638205       0.00246428906755
85.0106263283       0.00191313271043
85.5106888361       0.00147945464988
86.0107513439       0.00113962332642
86.5108138517       0.000874428121237
87.0108763595       0.000668328551238
87.5109388674       0.000508813969732
88.0110013752       0.000385861236241
88.511063883       0.00029147840824
89.0111263908       0.000219323283935
89.5111888986       0.000164386520767
90.0112514064       0.000122730013076
90.5113139142       9.12721897984e-05
91.0113764221       6.76128547264e-05
91.5114389299       4.98911125543e-05
92.0115014377       3.66707858857e-05
92.5115639455       2.68485205207e-05
93.0116264533       1.95804926111e-05
93.5116889611       1.42242698041e-05
94.0117514689       1.0292940493e-05
94.5118139767       7.41911419163e-06
95.0118764846       5.32681681744e-06
95.5119389924       3.80966319108e-06
96.0120015002       2.71399169502e-06
96.512064008       1.92589923171e-06
97.0121265158       1.36132468115e-06
97.5121890236       9.58501926227e-07
98.0122515314       6.72244680772e-07
98.5123140393       4.69639775732e-07
99.0123765471       3.26817634665e-07
99.5124390549       2.26542248103e-07
100.012501563       1.56421354548e-07
100.512564071       1.07583579965e-07
101.012626578       7.37053570267e-08
101.512689086       5.02985226901e-08
102.012751594       3.41912137499e-08
102.512814102       2.31513819193e-08
103.01287661       1.56150160074e-08
103.512939117       1.04908592678e-08
104.013001625       7.02073856772e-09
104.513064133       4.68012717787e-09
105.013126641       3.10767519308e-09
105.513189149       2.05549630464e-09
106.013251656       1.35425638735e-09
106.513314164       8.88767566928e-10
107.013376672       5.81003322728e-10
107.51343918       3.78331190775e-10
108.013501688       2.45396741435e-10
108.513564196       1.58550840538e-10
109.013626703       1.02040227665e-10
109.513689211       6.54150084861e-11
110.013751719       4.17721181986e-11
110.513814227       2.65704376181e-11
111.013876735       1.68350352265e-11
111.513939242       1.062508626e-11
112.01400175       6.67965470219e-12
112.514064258       4.18291147726e-12
113.014126766       2.60919446032e-12
113.514189274       1.62120276151e-12
114.014251781       1.0033936191e-12
114.514314289       6.18597909455e-13
115.014376797       3.79881963622e-13
115.514439305       2.32376397158e-13
116.014501813       1.41591919176e-13
116.514564321       8.59385537624e-14
117.014626828       5.19566022223e-14
117.514689336       3.12893546207e-14
118.014751844       1.87696310052e-14
118.514814352       1.12154951918e-14
119.01487686       6.67553023152e-15
119.514939367       3.95786343121e-15
120.015001875       2.33750905472e-15
120.515064383       1.37528766673e-15
121.015126891       8.0626116407e-16
121.515189399       4.71294629555e-16
122.015251906       2.75264064782e-16
122.515314414       1.6166634141e-16
123.015376922       9.72995396317e-17
123.51543943       6.31292820307e-17
124.015501938       4.89896901672e-17
124.515564446       5.07381514195e-17
125.015626953       6.91192727068e-17
125.515689461       1.10048750524e-16
126.015751969       1.8641558864e-16
126.515814477       3.21920025664e-16
127.015876985       5.58022643891e-16
127.515939492       9.65920215775e-16
128.016002       1.66679737861e-15
128.516064508       2.86575958603e-15
129.016127016       4.90835434207e-15
129.516189524       8.37426646821e-15
130.016252032       1.4231952511e-14
130.516314539       2.40927573783e-14
131.016377047       4.06267448398e-14
131.516439555       6.82402772393e-14
132.016502063       1.14175439336e-13
132.516564571       1.90286389557e-13
133.016627078       3.15897273621e-13
133.516689586       5.22380724885e-13
134.016752094       8.60461658193e-13
134.516814602       1.41181897853e-12
135.01687711       2.30743577215e-12
135.516939617       3.75649953804e-12
136.017002125       6.09172334003e-12
136.517064633       9.84011368256e-12
137.017127141       1.58329986003e-11
137.517189649       2.53763609996e-11
138.017252157       4.0513393976e-11
138.517314664       6.44274620569e-11
139.017377172       1.02057877793e-10
139.51743968       1.61036808806e-10
140.017502188       2.53108593895e-10
140.517564696       3.96270497004e-10
141.017627203       6.17987514608e-10
141.517689711       9.59998988345e-10
142.017752219       1.48547368506e-09
142.517814727       2.28961395336e-09
143.017877235       3.51530228485e-09
143.517939742       5.37608594249e-09
144.01800225       8.18979143716e-09
144.518064758       1.2427466307e-08
145.018127266       1.87843192041e-08
145.518189774       2.82820859592e-08
146.018252282       4.24160799665e-08
146.518314789       6.33654806349e-08
147.018377297       9.42926954418e-08
147.518439805       1.39767591316e-07
148.018502313       2.06365941889e-07
148.518564821       3.03509773202e-07
149.018627328       4.44641965655e-07
149.518689836       6.48860491966e-07
150.018752344       9.43181614916e-07
150.518814852       1.36565951443e-06
151.01887736       1.96966630655e-06
151.518939867       2.82973645615e-06
152.019002375       4.04950963885e-06
152.519064883       5.77247415458e-06
153.019127391       8.1964287909e-06
153.519189899       1.1592856397e-05
154.019252407       1.63327515317e-05
154.519314914       2.29208842123e-05
155.019377422       3.20410317485e-05
155.51943993       4.46153937631e-05
156.019502438       6.1882247908e-05
156.519564946       8.54969348881e-05
157.019627453       0.000117662513714
157.519689961       0.000161297936822
158.019752469       0.000220253397003
158.519814977       0.000299584632035
159.019877485       0.000405900475775
159.519939992       0.000547800850791
160.0200025       0.000736425736052
160.520065008       0.000986139433473
161.020127516       0.00131537870519
161.520190024       0.00174769804704
162.020252532       0.00231305046549
162.520315039       0.00304934756782
163.020377547       0.00400434845099
163.520440055       0.00523793263294
164.020502563       0.00682481790271
164.520565071       0.00885778920849
165.020627578       0.01145150922
165.520690086       0.0147469845886
166.020752594       0.0189167637052
166.520815102       0.0241709413699
167.02087761       0.0307640426153
167.520940118       0.0390028512904
168.021002625       0.049255238191
168.521065133       0.0619600277734
169.021127641       0.0776379210893
169.521190149       0.0969034648407
170.021252657       0.120478021806
170.521315164       0.149203655886
171.021377672       0.184057795451
171.52144018       0.226168481569
172.021502688       0.276829943478
172.521565196       0.337518173083
173.021627703       0.409906094614
173.521690211       0.495877846597
174.021752719       0.5975416133
174.521815227       0.717240364697
175.021877735       0.857559791146
175.521940243       1.02133265534
176.02200275       1.21163873402
176.522065258       1.43179948999
177.022127766       1.68536660631
177.522190274       1.97610353331
178.022252782       2.30795925051
178.522315289       2.68503353305
179.022377797       3.11153313924
179.522440305       3.5917185046
180.022502813       4.12984073821
180.522565321       4.73006896939
181.022627828       5.39640838308
181.522690336       6.1326096057
182.022752844       6.94207045354
182.522815352       7.82773142289
183.02287786       8.7919666737
183.522940368       9.83647262454
184.023002875       10.9621566201
184.523065383       12.169028439
185.023127891       13.4560976615
185.523190399       14.8212801018
186.023252907       16.2613166069
186.523315414       17.7717075264
187.023377922       19.3466660533
187.52344043       20.9790934129
188.023502938       22.6605785376
188.523565446       24.3814244119
189.023627953       26.1307026995
189.523690461       27.8963376013
190.023752969       29.6652191379
190.523815477       31.4233452378
191.023877985       33.1559911556
191.523940493       34.8479038835
192.024003       36.4835183738
192.524065508       38.0471915965
193.024128016       39.5234497481
193.524190524       40.8972433287
194.024253032       42.1542043484
194.524315539       43.2808996262
195.024378047       44.265074029
195.524440555       45.0958775709
196.024503063       45.7640705577
196.524565571       46.2622014183
197.024628079       46.5847524974
197.524690586       46.7282498758
198.024753094       46.691334212
198.524815602       46.4747906288
199.02487811       46.0815367671
199.524940618       45.516569258
200.025003125       44.7868699851
200.525065633       43.9012745823
201.025128141       42.8703066014
201.525190649       41.7059816573
202.025253157       40.4215865833
202.525315664       39.031439193
203.025378172       37.5506346205
203.52544068       35.9947843986
204.025503188       34.3797544335
204.525565696       32.7214078443
205.025628204       31.0353582817
205.525690711       29.3367388297
206.025753219       27.6399909567
206.525815727       25.9586772501
207.025878235       24.3053208602
207.525940743       22.6912737345
208.02600325       21.1266148713
208.526065758       19.6200789852
209.026128266       18.1790151885
209.526190774       16.8093745714
210.026253282       15.5157249284
210.526315789       14.3012903391
211.026378297       13.1680128867
211.526440805       12.1166334768
212.026503313       11.1467885171
212.526565821       10.2571191186
213.026628329       9.44538948292
213.526690836       8.7086112301
214.026753344       8.04317059206
214.526815852       7.44495562754
215.02687836       6.90948089713
215.526940868       6.43200735292
216.027003375       6.00765553622
216.527065883       5.63151052327
217.027128391       5.29871740368
217.527190899       5.00456640875
218.027253407       4.74456711897
218.527315914       4.51451146616
219.027378422       4.31052550031
219.52744093       4.12911011301
220.027503438       3.96717109498
220.527565946       3.82203905646
221.027628454       3.69147985549
221.527690961       3.57369626364
222.027753469       3.46732165321
222.527815977       3.37140651801
223.027878485       3.28539864541
223.527940993       3.20911774343
224.0280035       3.14272529824
224.528066008       3.08669039778
225.028128516       3.04175221096
225.528191024       3.00887976166
226.028253532       2.9892295876
226.52831604       2.9841018277
227.028378547       2.9948952411
227.528441055       3.02306162897
228.028503563       3.07006010757
228.528566071       3.13731166874
229.028628579       3.22615446234
229.528691086       3.3378002437
230.028753594       3.47329244567
230.528816102       3.63346635867
231.02887861       3.81891192883
231.528941118       4.02993971228
232.029003625       4.26655054779
232.529066133       4.52840952715
233.029128641       4.81482484882
233.529191149       5.12473213095
234.029253657       5.45668473283
234.529316165       5.80885058445
235.029378672       6.1790159524
235.52944118       6.56459647345
236.029503688       6.96265566732
236.529566196       7.36993099704
237.029628704       7.78286738275
237.529691211       8.19765789637
238.029753719       8.61029117581
238.529816227       9.01660490376
239.029878735       9.41234450569
239.529941243       9.79322604088
240.03000375       10.1550020971
240.530066258       10.4935293618
241.030128766       10.8048364353
241.530191274       11.0851903851
242.030253782       11.3311605108
242.53031629       11.5396778109
243.030378797       11.7080887082
243.530441305       11.8342017009
244.030503813       11.9163257666
244.530566321       11.9532995378
245.030628829       11.9445105026
245.530691336       11.889903737
246.030753844       11.7899799525
246.530816352       11.6457829246
247.03087886       11.458876649
247.530941368       11.2313128463
248.031003875       10.9655896823
248.531066383       10.6646027961
249.031128891       10.3315899101
249.531191399       9.97007044308
250.031253907       9.58378163909
250.531316415       9.1766127784
251.031378922       8.7525390318
251.53144143       8.31555647426
252.031503938       7.86961968074
252.531566446       7.41858319621
253.031628954       6.96614800775
253.531691461       6.51581395635
254.031753969       6.07083881831
254.531816477       5.63420456732
255.031878985       5.20859110844
255.531941493       4.79635755977
256.032004001       4.39953095543
256.532066508       4.01980205851
257.032129016       3.65852781214
257.532191524       3.31673982166
258.032254032       2.99515815592
258.53231654       2.69420968043
259.032379047       2.41405008989
259.532441555       2.15458879128
260.032504063       1.91551579905
260.532566571       1.69632983772
261.032629079       1.49636690163
261.532691586       1.31482859142
262.032754094       1.1508096298
262.532816602       1.0033240494
263.03287911       0.87132964039
263.532941618       0.753750340991
264.033004126       0.649496346564
264.533066633       0.557481800667
265.033129141       0.476640011423
265.533191649       0.405936207644
266.033254157       0.344377910139
266.533316665       0.291023044015
