#  x                 y             frequency           intensity
0.0       1.71633634424e-09       52.86       5.18855
0.500062507813       2.58896647283e-09       222.61       23.11545
1.00012501563       3.89003551832e-09       234.83       18.94070
1.50018752344       5.82215576167e-09       297.40       11.51978
2.00025003125       8.6799492587e-09       343.49       4.07796
2.50031253907       1.28900222111e-08       424.69       13.65367
3.00037504688       1.90674781766e-08       491.94       4.23170
3.50043755469       2.80954481092e-08       500.79       78.35525
4.00050006251       4.12364985439e-08       583.22       10.19864
4.50056257032       6.02879772372e-08       729.10       7.99583
5.00062507813       8.77976227777e-08       803.08       33.88436
5.50068758595       1.27361426373e-07       835.20       129.81730
6.00075009376       1.84033202839e-07       933.28       2.24005
6.50081260158       2.64885123233e-07       1023.45       1.06578
7.00087510939       3.7977123233e-07       1107.67       5.99400
7.5009376172       5.42362523818e-07       1145.03       44.66587
8.00100012502       7.71543461493e-07       1178.01       1.65966
8.50106263283       1.09328711639e-06       1228.67       3.22787
9.00112514064       1.54316078489e-06       1294.47       353.87411
9.50118764846       2.16965778746e-06       1352.20       8.71424
10.0012501563       3.03860615763e-06       1395.17       23.08458
10.5013126641       4.23897349101e-06       1417.51       4.87161
11.0013751719       5.89047206477e-06       1487.99       12.90883
11.5014376797       8.15347255637e-06       1505.82       11.74498
12.0015001875       1.1241861741e-05       1636.81       59.95816
12.5015626953       1.54396332078e-05       1839.15       259.25656
13.0016252032       2.11221844498e-05       2913.38       45.85779
13.501687711       2.87835128481e-05       3019.75       30.51879
14.0017502188       3.90707613115e-05       3087.56       25.83987
14.5018127266       5.28278656493e-05       3118.09       12.87941
15.0018752344       7.11504037078e-05       3501.79       10.22303
15.5019377422       9.54541435926e-05       3587.96       14.28776
16.00200025       0.000127560236405       3775.60       50.06430
16.5020627578       0.000169800497491
17.0021252657       0.000225146766544
17.5021877735       0.000297368925138
18.0022502813       0.000391226770749
18.5023127891       0.000512701584628
19.0023752969       0.000669273867033
19.5024378047       0.000870254321037
20.0025003125       0.00112717571189
20.5025628204       0.00145425367143
21.0026253282       0.00186892480707
21.502687836       0.00239247055458
22.0027503438       0.0030507350177
22.5028128516       0.00387494449318
23.0028753594       0.00490263540841
23.5029378672       0.00617869591899
24.003000375       0.00775652434355
24.5030628829       0.00969930487308
25.0031253907       0.0120813975134
25.5031878985       0.0149898349428
26.0032504063       0.0185259138583
26.5033129141       0.0228068624301
27.0033754219       0.0279675587141
27.5034379297       0.0341622673461
28.0035004376       0.0415663536776
28.5035629454       0.0503779258817
29.0036254532       0.0608193466765
29.503687961       0.0731385474891
30.0037504688       0.0876100694488
30.5038129766       0.104535747978
31.0038754844       0.124244951394
31.5039379922       0.14709427937
32.0040005001       0.173466624806
32.5040630079       0.203769503269
33.0041255157       0.238432558037
33.5041880235       0.277904156589
34.0042505313       0.322647006342
34.5043130391       0.373132733961
35.0043755469       0.42983539376
35.5044380548       0.493223896553
36.0045005626       0.563753380587
36.5045630704       0.641855580501
37.0046255782       0.727928287844
37.504688086       0.82232403672
38.0047505938       0.925338189428
38.5048131016       1.03719663816
39.0048756095       1.15804337836
39.5049381173       1.28792824559
40.0050006251       1.42679513883
40.5050631329       1.57447107736
41.0051256407       1.73065645407
41.5051881485       1.89491685349
42.0052506563       2.06667679685
42.5053131641       2.24521575806
43.005375672       2.42966676307
43.5054381798       2.61901784052
44.0055006876       2.81211653399
44.5055631954       3.00767761753
45.0056257032       3.20429407639
45.505688211       3.40045132752
46.0057507188       3.59454456159
46.5058132267       3.78489899185
47.0058757345       3.96979270087
47.5059382423       4.1474816844
48.0060007501       4.31622660871
48.5060632579       4.47432072517
49.0061257657       4.62011832757
49.5061882735       4.7520630967
50.0062507813       4.86871565409
50.5063132892       4.96877964585
51.006375797       5.05112569692
51.5064383048       5.11481261768
52.0065008126       5.15910530637
52.5065633204       5.1834888714
53.0066258282       5.18767859405
53.506688336       5.17162546229
54.0067508439       5.13551712506
54.5068133517       5.07977424126
55.0068758595       5.00504232266
55.5069383673       4.91217929184
56.0070008751       4.80223909067
56.5070633829       4.67645177684
57.0071258907       4.5362006341
57.5071883985       4.38299689108
58.0072509064       4.21845269369
58.5073134142       4.04425300489
59.007375922       3.86212711271
59.5074384298       3.67382041398
60.0075009376       3.48106710725
60.5075634454       3.28556437718
61.0076259532       3.0889485856
61.5076884611       2.89277390544
62.0077509689       2.69849374499
62.5078134767       2.50744521668
63.0078759845       2.32083680812
63.5079384923       2.13973931892
64.0080010001       1.96508003644
64.5080635079       1.79764004081
65.0081260158       1.63805445588
65.5081885236       1.48681540039
66.0082510314       1.34427734401
66.5083135392       1.21066453546
67.008376047       1.08608014672
67.5084385548       0.970516765872
68.0085010626       0.863867872249
68.5085635704       0.765939939145
69.0086260783       0.67646483012
69.5086885861       0.59511218354
70.0087510939       0.521501514245
70.5088136017       0.455213799617
71.0088761095       0.395802358075
71.5089386173       0.342802869408
72.0090011251       0.295742427087
72.509063633       0.254147551441
73.0091261408       0.217551128311
73.5091886486       0.185498269824
74.0092511564       0.157551121645
74.5093136642       0.133292664184
75.009376172       0.112329573677
75.5094386798       0.094294222893
76.0095011876       0.0788459106985
76.5095636955       0.0656714151326
77.0096262033       0.0544849665889
77.5096887111       0.0450277364999
78.0097512189       0.0370669332515
78.5098137267       0.0303945913667
79.0098762345       0.024826132845
79.5099387423       0.0201987713942
80.0100012502       0.0163698215798
80.510063758       0.0132149660232
81.0101262658       0.0106265250126
81.5101887736       0.00851176450931
82.0102512814       0.00679127072855
82.5103137892       0.00539741237557
83.010376297       0.0042729053263
83.5104388049       0.00336948907998
84.0105013127       0.0026467196948
84.5105638205       0.00207088011474
85.0106263283       0.00161400575784
85.5106888361       0.00125302089869
86.0107513439       0.000968979663284
86.5108138517       0.000746404283407
87.0108763595       0.000572712545733
87.5109388674       0.000437726040287
88.0110013752       0.000333250786642
88.511063883       0.000252722026828
89.0111263908       0.00019090535978
89.5111888986       0.000143646900747
90.0112514064       0.000107665735603
90.5113139142       8.03825680058e-05
91.0113764221       5.97790975194e-05
91.5114389299       4.42832967099e-05
92.0115014377       3.2676358221e-05
92.5115639455       2.40176474177e-05
93.0116264533       1.75845150039e-05
93.5116889611       1.28242931552e-05
94.0117514689       9.31621693163e-06
94.5118139767       6.74138082194e-06
95.0118764846       4.85916048323e-06
95.5119389924       3.48880533044e-06
96.0120015002       2.49514244854e-06
96.512064008       1.77753051548e-06
97.0121265158       1.26136826005e-06
97.5121890236       8.91599559056e-07
98.0122515314       6.27770501203e-07
98.5123140393       4.40286203416e-07
99.0123765471       3.07590106333e-07
99.5124390549       2.14048781844e-07
100.012501563       1.48373476263e-07
100.512564071       1.0244786125e-07
101.012626578       7.0461621572e-08
101.512689086       4.82731327576e-08
102.012751594       3.2942871121e-08
102.512814102       2.23934250486e-08
103.01287661       1.5162915431e-08
103.512939117       1.02269943263e-08
104.013001625       6.87094433708e-09
104.513064133       4.59820107318e-09
105.013126641       3.06522669857e-09
105.513189149       2.03535586916e-09
106.013251656       1.34623606537e-09
106.513314164       8.86962382688e-10
107.013376672       5.82092889628e-10
107.51343918       3.80524391773e-10
108.013501688       2.47785460624e-10
108.513564196       1.60720861502e-10
109.013626703       1.03841701762e-10
109.513689211       6.68304606762e-11
110.013751719       4.2843034724e-11
110.513814227       2.7358300149e-11
111.013876735       1.74020778395e-11
111.513939242       1.1025955032e-11
112.01400175       6.95880136399e-12
112.514064258       4.37477554656e-12
113.014126766       2.73955626788e-12
113.514189274       1.70886512554e-12
114.014251781       1.06178958662e-12
114.514314289       6.57161707924e-13
115.014376797       4.05143756484e-13
115.514439305       2.48799305903e-13
116.014501813       1.52192163666e-13
116.514564321       9.27339013622e-14
117.014626828       5.62843796773e-14
117.514689336       3.40283075882e-14
118.014751844       2.04925464718e-14
118.514814352       1.22929076899e-14
119.01487686       7.34541648306e-15
119.514939367       4.37201197646e-15
120.015001875       2.59208580477e-15
120.515064383       1.53080727482e-15
121.015126891       9.00522926749e-16
121.515189399       5.27681834574e-16
122.015251906       3.08001354604e-16
122.515314414       1.7907552053e-16
123.015376922       1.03710548436e-16
123.51543943       5.98291389393e-17
124.015501938       3.43799853389e-17
124.515564446       1.96789415031e-17
125.015626953       1.1220207675e-17
125.515689461       6.372402054e-18
126.015751969       3.60502728032e-18
126.515814477       2.03150106835e-18
127.015876985       1.14032505744e-18
127.515939492       6.37592783788e-19
128.016002       3.55108633917e-19
128.516064508       1.97007238372e-19
129.016127016       1.08869504862e-19
129.516189524       5.99285025092e-20
130.016252032       3.28597093702e-20
130.516314539       1.79472175941e-20
131.016377047       9.76413264413e-21
131.516439555       5.29143417145e-21
132.016502063       2.85638344767e-21
132.516564571       1.5359028577e-21
133.016627078       8.2265536746e-22
133.516689586       4.38924352262e-22
134.016752094       2.33302249651e-22
134.516814602       1.23582251547e-22
135.01687711       6.53230541442e-23
135.516939617       3.4622631784e-23
136.017002125       1.8729154144e-23
136.517064633       1.09675314923e-23
137.017127141       8.05335630041e-24
137.517189649       8.76142329704e-24
138.017252157       1.34331315982e-23
138.517314664       2.41339758779e-23
139.017377172       4.5530522342e-23
139.51743968       8.68436008403e-23
140.017502188       1.65660427305e-22
140.517564696       3.15113827721e-22
141.017627203       5.9723153803e-22
141.517689711       1.12759698326e-21
142.017752219       2.12068856244e-21
142.517814727       3.97287871065e-21
143.017877235       7.41374160894e-21
143.517939742       1.37807502015e-20
144.01800225       2.55159317587e-20
144.518064758       4.70601306148e-20
145.018127266       8.64565578764e-20
145.518189774       1.58214348639e-19
146.018252282       2.88401097003e-19
146.518314789       5.23662002163e-19
147.018377297       9.47127244056e-19
147.518439805       1.70635233131e-18
148.018502313       3.06219049875e-18
148.518564821       5.47392462283e-18
149.018627328       9.74694543077e-18
149.518689836       1.72878653088e-17
150.018752344       3.05433957791e-17
150.518814852       5.37522172295e-17
151.01887736       9.4227693519e-17
151.518939867       1.64537105244e-16
152.019002375       2.86188552643e-16
152.519064883       4.9584253427e-16
153.019127391       8.55733262587e-16
153.519189899       1.47107956621e-15
154.019252407       2.51905139021e-15
154.519314914       4.29675911521e-15
155.019377422       7.30042429522e-15
155.51943993       1.23554427296e-14
156.019502438       2.08291543385e-14
156.519564946       3.49774448122e-14
157.019627453       5.85069742093e-14
157.519689961       9.74833204131e-14
158.019752469       1.61791650515e-13
158.519814977       2.67476120165e-13
159.019877485       4.40470718069e-13
159.519939992       7.22523851177e-13
160.0200025       1.18056649286e-12
160.520065008       1.9214621636e-12
161.020127516       3.11513119123e-12
161.520190024       5.03064841994e-12
162.020252532       8.09235103286e-12
162.520315039       1.29666737229e-11
163.020377547       2.06959599796e-11
163.520440055       3.29037724744e-11
164.020502563       5.21085437875e-11
164.520565071       8.22006604377e-11
165.020627578       1.29164987273e-10
165.520690086       2.02170336549e-10
166.020752594       3.15205069892e-10
166.520815102       4.89521857302e-10
167.02087761       7.57275867609e-10
167.520940118       1.16691516615e-09
168.021002625       1.79113199483e-09
168.521065133       2.73853970627e-09
169.021127641       4.17074500835e-09
169.521190149       6.3271974076e-09
170.021252657       9.5611973737e-09
170.521315164       1.43918405745e-08
171.021377672       2.15786145207e-08
171.52144018       3.22280434568e-08
172.021502688       4.79454606875e-08
172.521565196       7.10500239746e-08
173.021627703       1.0487793934e-07
173.521690211       1.54208123926e-07
174.021752719       2.25857002757e-07
174.521815227       3.29505808687e-07
175.021877735       4.78845936554e-07
175.521940243       6.93157242337e-07
176.02200275       9.99472761885e-07
176.522065258       1.43553376615e-06
177.022127766       2.05380462227e-06
177.522190274       2.9269016013e-06
178.022252782       4.15489846312e-06
178.522315289       5.87511028911e-06
179.022377797       8.27513273461e-06
179.522440305       1.16101350696e-05
180.022502813       1.62256819583e-05
180.522565321       2.25877023505e-05
181.022627828       3.13216471957e-05
181.522690336       4.32633956693e-05
182.022752844       5.95250984593e-05
182.522815352       8.15799040081e-05
183.02287786       0.000111370418001
183.522940368       0.000151446816828
184.023002875       0.000205141790834
184.523065383       0.00027679095012
185.023127891       0.000372008998734
185.523190399       0.000498033882196
186.023252907       0.000664153241348
186.523315414       0.000882229856497
187.023377922       0.00116734532137
187.52344043       0.00153858391286
188.023502938       0.00201998146741
188.523565446       0.00264166696293
189.023627953       0.00344122733497
189.523690461       0.00446532869622
190.023752969       0.00577162941541
190.523815477       0.00743102224646
191.023877985       0.00953024364641
191.523940493       0.0121748883116
192.024003       0.0154928654937
192.524065508       0.0196383304991
193.024128016       0.0247961195836
193.524190524       0.0311867088653
194.024253032       0.0390717075559
194.524315539       0.0487598824236
195.024378047       0.0606136936884
195.524440555       0.0750563023136
196.024503063       0.0925789848137
196.524565571       0.113748864291
197.024628079       0.139216835666
197.524690586       0.169725529391
198.024753094       0.206117121981
198.524815602       0.24934076432
199.02487811       0.300459361139
199.524940618       0.360655398604
200.025003125       0.4312354834
200.525065633       0.513633227868
201.025128141       0.609410093766
201.525190649       0.720253794334
202.025253157       0.847973852712
202.525315664       0.994493926726
203.025378172       1.16184053754
203.52544068       1.35212788447
204.025503188       1.56753849168
204.525565696       1.81029951502
205.025628204       2.08265463963
205.525690711       2.38683161874
206.025753219       2.72500564193
206.525815727       3.09925887139
207.025878235       3.51153664624
207.525940743       3.96360102075
208.02600325       4.45698246805
208.526065758       4.99293073936
209.026128266       5.57236601273
209.526190774       6.19583158757
210.026253282       6.86344947428
210.526315789       7.57488028464
211.026378297       8.32928884209
211.526440805       9.12531689641
212.026503313       9.96106424053
212.526565821       10.8340793861
213.026628329       11.7413607601
213.526690836       12.6793691396
214.026753344       13.644051748
214.526815852       14.6308781085
215.02687836       15.6348873902
215.526940868       16.650746607
216.027003375       17.6728186525
216.527065883       18.6952387906
217.027128391       19.7119978815
217.527190899       20.717030333
218.027253407       21.7043045312
218.527315914       22.6679133408
219.027378422       23.6021621855
219.52744093       24.501652225
220.027503438       25.3613562485
220.527565946       26.1766850988
221.027628454       26.9435427242
221.527690961       27.658368321
222.027753469       28.318164462
222.527815977       28.9205105903
223.027878485       29.4635617755
223.527940993       29.9460331617
224.0280035       30.367171051
224.528066008       30.7267120585
225.028128516       31.0248322032
225.528191024       31.2620881597
226.028253532       31.4393531622
226.52831604       31.5577502222
227.028378547       31.61858537
227.528441055       31.6232835781
228.028503563       31.5733298509
228.528566071       31.4702176921
229.028628579       31.3154067976
229.528691086       31.1102913792
230.028753594       30.8561800323
230.528816102       30.5542875301
231.02887861       30.2057383944
231.528941118       29.8115815687
232.029003625       29.3728150411
232.529066133       28.8904188394
233.029128641       28.3653944778
233.529191149       27.7988086787
234.029253657       27.1918390439
234.529316165       26.5458192968
235.029378672       25.86228178
235.52944118       25.1429950452
236.029503688       24.3899946208
236.529566196       23.6056053653
237.029628704       22.7924541952
237.529691211       21.9534724011
238.029753719       21.0918872071
238.529816227       20.2112026733
239.029878735       19.3151704683
239.529941243       18.4077514238
240.03000375       17.4930691266
240.530066258       16.5753570724
241.030128766       15.6589011116
241.530191274       14.7479790417
242.030253782       13.846799248
242.53031629       12.959440265
243.030378797       12.0897930355
243.530441305       11.2415074771
244.030503813       10.4179447613
244.530566321       9.62213645059
245.030628829       8.8567513645
245.530691336       8.12407075057
246.030753844       7.42597204196
246.530816352       6.76392119906
247.03087886       6.1389733691
247.530941368       5.55178136297
248.031003875       5.00261124974
248.531066383       4.49136421033
249.031128891       4.01760367566
249.531191399       3.58058670125
250.031253907       3.17929849831
250.531316415       2.81248904815
251.031378922       2.47871076816
251.53144143       2.17635626787
252.031503938       1.90369532773
252.531566446       1.65891034504
253.031628954       1.44012961458
253.531691461       1.24545794024
254.031753969       1.07300420397
254.531816477       0.920905643442
255.031878985       0.787348707586
255.531941493       0.670586465608
256.032004001       0.568952638682
256.532066508       0.480872402181
257.032129016       0.404870170037
257.532191524       0.339574621289
258.032254032       0.283721262792
258.53231654       0.236152842494
259.032379047       0.195817936047
259.532441555       0.161768027471
260.032504063       0.13315339387
260.532566571       0.109218086621
261.032629079       0.0892942788655
261.532691586       0.0727962230001
262.032754094       0.0592140338785
262.532816602       0.0481074847258
263.03287911       0.0390999744908
