#  x                 y             frequency           intensity
0.0       0.042142847161       14.59       0.22222
0.500062507813       0.0471429047225       34.50       0.18281
1.00012501563       0.0525312105385       38.95       0.18922
1.50018752344       0.0583079850565       54.84       0.13590
2.00025003125       0.0644687613522       68.42       2.86547
2.50031253907       0.071003963517       107.77       0.62184
3.00037504688       0.0778985484392       139.20       0.45515
3.50043755469       0.0851317271406       147.53       0.41531
4.00050006251       0.0926767812986       156.63       0.66346
4.50056257032       0.100500989495       170.72       0.68920
5.00062507813       0.108565676064       193.42       0.82819
5.50068758595       0.116826393164       223.71       0.14332
6.00075009376       0.125233243898       232.74       0.48951
6.50081260158       0.13373135101       246.48       2.16413
7.00087510939       0.142261471953       250.51       1.12082
7.5009376172       0.150760757092       277.50       106.77546
8.00100012502       0.15916364348       292.59       6.87037
8.50106263283       0.167402872365       314.64       0.60800
9.00112514064       0.175410614235       342.43       1.36562
9.50118764846       0.183119681161       349.32       3.06816
10.0012501563       0.190464802489       364.73       1.85731
10.5013126641       0.19738393672       383.93       1.32953
11.0013751719       0.203819589873       421.02       0.63130
11.5014376797       0.209720108817       424.21       1.38358
12.0015001875       0.215040917137       451.29       2.07229
12.5015626953       0.219745661051       470.32       3.08952
13.0016252032       0.223807233819       512.62       2.10071
13.501687711       0.227208648956       527.34       9.83162
14.0017502188       0.22994373534       543.15       13.25335
14.5018127266       0.232017630934       555.85       5.47969
15.0018752344       0.233447056194       575.65       1.71079
15.5019377422       0.234260353266       578.52       10.35214
16.00200025       0.234497282527       597.82       4.46715
16.5020627578       0.234208573818       608.87       0.09093
17.0021252657       0.233455235679       630.89       9.76384
17.5021877735       0.232307631805       655.99       17.19993
18.0022502813       0.230844339658       657.30       47.27069
18.5023127891       0.22915081157       669.28       40.64977
19.0023752969       0.227317863528       698.28       0.73188
19.5024378047       0.22544002112       729.28       15.24362
20.0025003125       0.223613755642       766.85       9.41763
20.5025628204       0.221935646133       775.67       8.60875
21.0026253282       0.220500505015       792.93       2.87395
21.502687836       0.219399506027       819.36       5.37808
22.0027503438       0.218718353344       838.70       26.45446
22.5028128516       0.218535530047       848.04       9.76192
23.0028753594       0.218920662667       858.09       20.99880
23.5029378672       0.219933036216       865.24       6.90607
24.003000375       0.221620291241       876.95       5.25080
24.5030628829       0.224017330835       887.22       41.75884
25.0031253907       0.227145461492       895.63       2.95763
25.5031878985       0.231011787158       920.04       4.56241
26.0032504063       0.235608870957       933.25       9.82754
26.5033129141       0.240914673914       946.89       7.52313
27.0033754219       0.246892774721       972.98       1.57498
27.5034379297       0.253492869128       979.48       1.35451
28.0035004376       0.260651542225       986.02       0.45290
28.5035629454       0.268293301512       1001.45       10.96184
29.0036254532       0.2763318536       1020.88       18.42921
29.503687961       0.284671602554       1026.82       12.70701
30.0037504688       0.293209343418       1051.39       9.92466
30.5038129766       0.301836120543       1062.12       61.56426
31.0038754844       0.310439216893       1064.65       39.16820
31.5039379922       0.31890423778       1074.31       19.08420
32.0040005001       0.327117250464       1085.41       5.35588
32.5040630079       0.334966939878       1110.27       14.17347
33.0041255157       0.342346740385       1112.42       18.29375
33.5041880235       0.349156904135       1124.89       8.26161
34.0042505313       0.355306468084       1158.70       11.05274
34.5043130391       0.360715084287       1167.94       9.39986
35.0043755469       0.365314681455       1172.37       0.93451
35.5044380548       0.369050930078       1175.29       3.24811
36.0045005626       0.371884488458       1195.07       112.50404
36.5045630704       0.373792012723       1209.13       47.88266
37.0046255782       0.37476692012       1223.60       29.80351
37.504688086       0.374819901442       1225.33       9.96637
38.0047505938       0.373979185142       1251.35       7.87778
38.5048131016       0.37229056229       1266.40       6.81553
39.0048756095       0.36981718781       1272.85       1.92495
39.5049381173       0.366639179175       1281.54       73.27129
40.0050006251       0.362853038641       1284.88       6.71584
40.5050631329       0.358570929035       1297.61       185.45505
41.0051256407       0.353919835799       1310.21       7.76134
41.5051881485       0.349040649285       1329.26       1.46353
42.0052506563       0.344087201075       1341.33       23.04087
42.5053131641       0.339225286281       1343.54       5.78953
43.005375672       0.334631700321       1348.37       6.52212
43.5054381798       0.330493313591       1351.69       5.80072
44.0055006876       0.327006200965       1356.43       8.53344
44.5055631954       0.324374835146       1370.33       5.35524
45.0056257032       0.322811343996       1378.97       1.12679
45.505688211       0.322534822294       1384.60       3.32518
46.0057507188       0.32377067827       1385.77       1.80348
46.5058132267       0.326749985276       1403.11       6.31548
47.0058757345       0.331708799407       1405.30       3.35463
47.5059382423       0.338887395393       1430.24       10.28647
48.0060007501       0.348529366108       1457.83       11.72225
48.5060632579       0.360880526025       1481.16       6.77679
49.0061257657       0.376187556518       1492.01       0.62355
49.5061882735       0.394696331254       1494.96       7.67481
50.0062507813       0.416649863606       1498.86       6.58911
50.5063132892       0.44228582508       1500.72       6.11913
51.006375797       0.471833594439       1503.61       54.01650
51.5064383048       0.505510811423       1508.52       5.86194
52.0065008126       0.543519426544       1511.79       2.49388
52.5065633204       0.586041258981       1551.21       111.07352
53.0066258282       0.633233097696       1604.73       17.71215
53.506688336       0.68522140572       1633.59       14.60978
54.0067508439       0.742096713369       1666.21       100.47457
54.5068133517       0.80390781194       2210.42       18.83450
55.0068758595       0.87065588415       3006.32       72.08537
55.5069383673       0.942288730054       3013.05       25.00736
56.0070008751       1.01869526628       3021.44       10.41368
56.5070633829       1.09970049098       3033.07       30.29018
57.0071258907       1.18506111599       3034.46       3.79565
57.5071883985       1.27446207012       3046.30       40.57074
58.0072509064       1.36751407301       3050.49       22.12591
58.5073134142       1.46375246645       3061.78       35.16267
59.007375922       1.56263747019       3064.28       11.10944
59.5074384298       1.66355600087       3069.36       31.55285
60.0075009376       1.76582515786       3072.73       19.10541
60.5075634454       1.86869743756       3081.10       37.72724
61.0076259532       1.97136769078       3091.21       47.95631
61.5076884611       2.07298178627       3130.71       18.75242
62.0077509689       2.17264688997       3131.48       23.29518
62.5078134767       2.26944321547       3136.04       32.01955
63.0078759845       2.36243704833       3192.08       2.41905
63.5079384923       2.45069479825       3199.99       4.86395
64.0080010001       2.53329778918       3213.37       9.07182
64.5080635079       2.60935746186       3227.36       5.94791
65.0081260158       2.67803063602       3469.70       82.71585
65.5081885236       2.73853446329       3803.62       22.09200
66.0082510314       2.7901606968
66.5083135392       2.83228891027
67.008376047       2.86439831892
67.5084385548       2.88607788504
68.0085010626       2.89703443271
68.5085635704       2.89709854776
69.0086260783       2.88622809775
69.5086885861       2.86450927172
70.0087510939       2.83215510798
70.5088136017       2.78950154765
71.0088761095       2.7370011196
71.5089386173       2.67521442719
72.0090011251       2.60479966534
72.509063633       2.52650044696
73.0091261408       2.44113225866
73.5091886486       2.34956789569
74.0092511564       2.25272224444
74.5093136642       2.15153678735
75.009376172       2.04696419987
75.5094386798       1.93995339272
76.0095011876       1.83143532593
76.5095636955       1.72230988614
77.0096262033       1.61343407551
77.5096887111       1.50561171322
78.0097512189       1.39958479863
78.5098137267       1.29602663244
79.0098762345       1.1955367396
79.5099387423       1.09863758706
80.0100012502       1.00577304274
80.510063758       0.917308480024
81.0101262658       0.833532396263
81.5101887736       0.754659384149
82.0102512814       0.680834272879
82.5103137892       0.612137240667
83.010376297       0.548589692191
83.5104388049       0.490160693026
84.0105013127       0.436773757609
84.5105638205       0.388313797062
85.0106263283       0.344634047292
85.5106888361       0.305562815428
86.0107513439       0.270909902773
86.5108138517       0.24047258424
87.0108763595       0.214041046842
87.5109388674       0.191403212434
88.0110013752       0.172348891972
88.511063883       0.15667323953
89.0111263908       0.144179493739
89.5111888986       0.134681012016
90.0112514064       0.128002618661
90.5113139142       0.123981301571
91.0113764221       0.12246630403
91.5114389299       0.123318667705
92.0115014377       0.126410290833
92.5115639455       0.131622571726
93.0116264533       0.138844712197
93.5116889611       0.147971758589
94.0117514689       0.158902459746
94.5118139767       0.171537021631
95.0118764846       0.185774837494
95.5119389924       0.201512270394
96.0120015002       0.218640561658
96.512064008       0.237043934433
97.0121265158       0.25659795582
97.5121890236       0.277168214248
98.0122515314       0.298609360723
98.5123140393       0.320764553422
99.0123765471       0.343465334892
99.5124390549       0.366531960006
100.012501563       0.389774180991
100.512564071       0.412992483462
101.012626578       0.435979754911
101.512689086       0.458523354575
102.012751594       0.480407541715
102.512814102       0.501416208109
103.01287661       0.52133585071
103.512939117       0.539958712017
104.013001625       0.557086009274
104.513064133       0.572531169372
105.013126641       0.586122984449
105.513189149       0.59770860389
106.013251656       0.607156281732
106.513314164       0.614357804287
107.013376672       0.619230531074
107.51343918       0.621718992539
108.013501688       0.621796000333
108.513564196       0.619463239561
109.013626703       0.614751327142
109.513689211       0.607719335508
110.013751719       0.598453795958
110.513814227       0.587067210459
111.013876735       0.573696114058
111.513939242       0.558498741902
112.01400175       0.541652364695
112.514064258       0.52335036404
113.014126766       0.503799124176
113.514189274       0.483214819065
114.014251781       0.461820173628
114.514314289       0.439841275134
115.014376797       0.417504505613
115.514439305       0.395033658915
116.014501813       0.372647296956
116.514564321       0.350556389297
117.014626828       0.328962268804
117.514689336       0.30805492429
118.014751844       0.288011639132
118.514814352       0.268995973376
119.01487686       0.251157076202
119.514939367       0.234629306078
120.015001875       0.219532127966
120.515064383       0.205970250568
121.015126891       0.194033962156
121.515189399       0.183799620952
122.015251906       0.175330255367
122.515314414       0.168676230627
123.015376922       0.16387594118
123.51543943       0.160956492636
124.015501938       0.159934342647
124.515564446       0.160815876648
125.015626953       0.163597901595
125.515689461       0.168268048373
126.015751969       0.174805080973
126.515814477       0.183179117787
127.015876985       0.193351776843
127.515939492       0.20527626252
128.016002       0.218897415847
128.516064508       0.234151753789
129.016127016       0.250967524891
129.516189524       0.269264809134
130.016252032       0.288955688923
130.516314539       0.309944515808
131.016377047       0.332128293979
131.516439555       0.355397196828
132.016502063       0.379635227311
132.516564571       0.40472102653
133.016627078       0.4305288283
133.516689586       0.456929550627
134.016752094       0.483792008395
134.516814602       0.510984225339
135.01687711       0.53837481786
135.516939617       0.565834418684
136.017002125       0.593237104893
136.517064633       0.620461792749
137.017127141       0.647393560937
137.517189649       0.67392486459
138.017252157       0.69995660458
138.517314664       0.72539902013
139.017377172       0.750172377598
139.51743968       0.774207434266
140.017502188       0.797445662809
140.517564696       0.819839229726
141.017627203       0.841350728969
141.517689711       0.861952680168
142.017752219       0.88162680885
142.517814727       0.900363133599
143.017877235       0.91815889199
143.517939742       0.935017343001
144.01800225       0.950946488333
144.518064758       0.965957758347
145.018127266       0.980064710115
145.518189774       0.99328178517
146.018252282       1.00562317294
146.518314789       1.01710182255
147.018377297       1.02772864065
147.518439805       1.03751190654
148.018502313       1.04645692775
148.518564821       1.05456595056
149.018627328       1.06183832965
149.518689836       1.06827095106
150.018752344       1.07385889172
150.518814852       1.07859628864
151.01887736       1.08247738112
151.518939867       1.08549768048
152.019002375       1.08765521465
152.519064883       1.08895178956
153.019127391       1.08939420554
153.519189899       1.08899536647
154.019252407       1.08777522027
154.519314914       1.08576147401
155.019377422       1.08299003302
155.51943993       1.07950512314
156.019502438       1.07535906572
156.519564946       1.07061168901
157.019627453       1.06532937329
157.519689961       1.05958374296
158.019752469       1.05345003416
158.519814977       1.04700518179
159.019877485       1.04032568386
159.519939992       1.03348531357
160.0200025       1.02655275966
160.520065008       1.0195892828
161.020127516       1.01264648011
161.520190024       1.00576425002
162.020252532       0.998969047071
162.520315039       0.992272508888
163.020377547       0.985670527745
163.520440055       0.97914282515
164.020502563       0.972653071912
164.520565071       0.966149577578
165.020627578       0.959566553305
165.520690086       0.952825931636
166.020752594       0.945839706199
166.520815102       0.93851273481
167.02087761       0.930745931574
167.520940118       0.922439758123
168.021002625       0.913497911644
168.521065133       0.903831098332
169.021127641       0.8933607757
169.521190149       0.882022745944
170.021252657       0.869770485354
170.521315164       0.85657810136
171.021377672       0.842442819006
171.52144018       0.827386911987
172.021502688       0.81145900929
172.521565196       0.794734726459
173.021627703       0.777316589771
173.521690211       0.759333241557
174.021752719       0.740937934849
174.521815227       0.722306344827
175.021877735       0.703633742637
175.521940243       0.685131593541
176.02200275       0.667023655656
176.522065258       0.649541667467
177.022127766       0.632920721598
177.522190274       0.617394429033
178.022252782       0.603189981925
178.522315289       0.590523224573
179.022377797       0.579593841044
179.522440305       0.570580764633
180.022502813       0.563637908947
180.522565321       0.558890313204
181.022627828       0.556430785555
181.522690336       0.556317118074
182.022752844       0.558569935763
182.522815352       0.563171229633
183.02287786       0.570063610895
183.522940368       0.579150309618
184.023002875       0.590295927081
184.523065383       0.603327936645
185.023127891       0.618038913415
185.523190399       0.634189458521
186.023252907       0.651511769636
186.523315414       0.669713795712
187.023377922       0.688483901083
187.52344043       0.707495952302
188.023502938       0.726414730763
188.523565446       0.74490156556
189.023627953       0.762620074464
189.523690461       0.779241896698
190.023752969       0.794452299558
190.523815477       0.807955542069
191.023877985       0.81947988294
191.523940493       0.828782127046
192.024003       0.835651614491
192.524065508       0.839913568872
193.024128016       0.841431736251
193.524190524       0.840110263349
194.024253032       0.835894781984
194.524315539       0.828772686346
195.024378047       0.818772609689
195.524440555       0.805963126787
196.024503063       0.790450727506
196.524565571       0.772377124295
197.024628079       0.751915971998
197.524690586       0.72926909133
198.024753094       0.704662297564
198.524815602       0.678340942874
199.02487811       0.650565284407
199.524940618       0.621605790372
200.025003125       0.591738493332
200.525065633       0.561240493698
201.025128141       0.53038570746
201.525190649       0.499440940827
202.025253157       0.468662361217
202.525315664       0.438292419423
203.025378172       0.408557262364
203.52544068       0.379664660168
204.025503188       0.351802455956
204.525565696       0.325137532118
205.025628204       0.299815273498
205.525690711       0.275959496134
206.025753219       0.253672800289
206.525815727       0.233037298659
207.025878235       0.214115664936
207.525940743       0.196952444381
208.02600325       0.181575566633
208.526065758       0.167998001503
209.026128266       0.156219500798
209.526190774       0.146228373026
210.026253282       0.138003242899
210.526315789       0.131514753545
211.026378297       0.126727176052
211.526440805       0.123599898001
212.026503313       0.122088769851
212.526565821       0.122147295136
213.026628329       0.123727657191
213.526690836       0.126781581496
214.026753344       0.131261038415
214.526815852       0.13711879626
215.02687836       0.144308838947
215.526940868       0.152786666164
216.027003375       0.162509496914
216.527065883       0.173436399464
217.027128391       0.18552837227
217.527190899       0.198748401255
218.027253407       0.213061519036
218.527315914       0.228434891182
219.027378422       0.244837953514
219.52744093       0.26224262263
220.027503438       0.280623599382
220.527565946       0.299958781766
221.027628454       0.320229799753
221.527690961       0.34142267973
222.027753469       0.363528640672
222.527815977       0.386545017724
223.027878485       0.410476301742
223.527940993       0.435335275534
224.0280035       0.461144219227
224.528066008       0.487936148574
225.028128516       0.515756041407
225.528191024       0.544661999046
226.028253532       0.574726281866
226.52831604       0.606036151612
227.028378547       0.638694448044
227.528441055       0.672819824497
228.028503563       0.708546566383
228.528566071       0.746023918957
229.028628579       0.785414856245
229.528691086       0.826894231979
230.028753594       0.870646266022
230.528816102       0.916861335935
231.02887861       0.965732063005
231.528941118       1.01744870477
232.029003625       1.07219389144
232.529066133       1.13013677093
233.029128641       1.19142665552
233.529191149       1.25618629179
234.029253657       1.32450490311
