#  x                 y             frequency           intensity
0.0       0.00759918736961       17.58       0.07002
0.500062507813       0.00877444036973       23.55       0.10188
1.00012501563       0.0100952714744       41.99       0.82400
1.50018752344       0.0115735728687       47.34       0.08357
2.00025003125       0.0132212476506       78.88       0.99318
2.50031253907       0.0150500430739       132.88       1.02232
3.00037504688       0.0170713646843       136.71       0.46281
3.50043755469       0.0192960729876       142.34       0.46338
4.00050006251       0.021734264977       155.43       0.62350
4.50056257032       0.0243950435614       165.11       1.13829
5.00062507813       0.0272862786716       206.45       6.04712
5.50068758595       0.030414364544       215.16       1.45352
6.00075009376       0.033783978378       221.89       1.09784
6.50081260158       0.0373978462108       237.34       0.85848
7.00087510939       0.0412565224234       262.14       2.39327
7.5009376172       0.0453581897688       291.48       58.65001
8.00100012502       0.0496984871621       314.41       51.38164
8.50106263283       0.0542703726835       320.50       18.64487
9.00112514064       0.0590640292902       347.11       2.93377
9.50118764846       0.0640668205921       347.93       4.08262
10.0012501563       0.069263303716       375.31       3.60514
10.5013126641       0.0746353057348       386.63       0.51931
11.0013751719       0.0801620693826       418.92       4.63869
11.5014376797       0.0858204727941       427.60       1.05372
12.0015001875       0.0915853268114       460.85       0.42797
12.5015626953       0.0974297519966       478.03       6.37373
13.0016252032       0.103325635876       514.96       4.78438
13.501687711       0.109244169158       524.56       7.41419
14.0017502188       0.115156457709       543.24       7.13707
14.5018127266       0.121034204999       557.37       0.24448
15.0018752344       0.126850457522       561.85       6.12268
15.5019377422       0.132580403468       579.59       3.25568
16.00200025       0.13820221263       601.06       9.61282
16.5020627578       0.143697903292       616.48       2.53073
17.0021252657       0.149054219665       632.52       11.26141
17.5021877735       0.154263501407       652.33       21.95680
18.0022502813       0.159324524898       657.52       41.75671
18.5023127891       0.164243294381       664.83       44.39851
19.0023752969       0.169033759776       703.55       1.71418
19.5024378047       0.173718437154       719.14       8.81792
20.0025003125       0.178328907388       765.20       7.59517
20.5025628204       0.182906168664       773.79       4.41640
21.0026253282       0.187500819218       807.44       1.46287
21.502687836       0.192173048031       820.28       8.82530
22.0027503438       0.196992413265       835.64       36.31246
22.5028128516       0.202037391023       849.34       0.68119
23.0028753594       0.207394680544       858.80       1.15962
23.5029378672       0.213158256262       865.96       34.60753
24.003000375       0.219428162158       884.71       27.10397
24.5030628829       0.226309049593       898.64       11.10293
25.0031253907       0.233908466105       903.10       2.76125
25.5031878985       0.242334909509       930.32       14.35847
26.0032504063       0.251695668829       941.83       10.66564
26.5033129141       0.262094481007       942.68       1.73462
27.0033754219       0.273629039738       973.57       0.28085
27.5034379297       0.286388399953       979.39       1.12864
28.0035004376       0.30045032822       988.80       0.20597
28.5035629454       0.315878655317       994.65       17.42160
29.0036254532       0.332720692227       1022.89       21.20757
29.503687961       0.351004774612       1040.25       46.65398
30.0037504688       0.370738003022       1050.14       17.31963
30.5038129766       0.3919042467       1056.87       1.18437
31.0038754844       0.414462477448       1063.40       54.91539
31.5039379922       0.438345496646       1074.33       0.46595
32.0040005001       0.46345911303       1078.59       8.30259
32.5040630079       0.489681821207       1106.47       25.74690
33.0041255157       0.516865021283       1112.59       25.44009
33.5041880235       0.544833808438       1126.18       6.56781
34.0042505313       0.573388348166       1146.94       11.21032
34.5043130391       0.602305838401       1157.54       13.13492
35.0043755469       0.631343044372       1172.53       0.94500
35.5044380548       0.660239376143       1173.96       3.63214
36.0045005626       0.68872046296       1208.08       4.07720
36.5045630704       0.716502163217       1227.57       4.42653
37.0046255782       0.743294934674       1228.49       13.59342
37.504688086       0.76880847698       1241.87       56.42990
38.0047505938       0.792756548134       1253.48       1.59838
38.5048131016       0.814861848634       1261.29       4.91861
39.0048756095       0.834860862118       1272.16       156.96448
39.5049381173       0.852508539592       1281.51       5.05288
40.0050006251       0.867582715919       1292.06       37.58188
40.5050631329       0.879888152275       1300.76       1.72026
41.0051256407       0.889260106605       1312.75       15.30861
41.5051881485       0.895567345489       1331.33       1.90210
42.0052506563       0.898714525013       1334.30       7.84318
42.5053131641       0.898643884705       1343.21       4.08739
43.005375672       0.895336216847       1352.86       12.24102
43.5054381798       0.888811092902       1353.58       10.43763
44.0055006876       0.879126348746       1362.29       7.55812
44.5055631954       0.866376850185       1377.41       3.01601
45.0056257032       0.850692579242       1380.39       13.63811
45.505688211       0.832236099246       1381.16       7.93107
46.0057507188       0.811199472292       1388.62       10.54313
46.5058132267       0.787800715703       1400.79       22.72527
47.0058757345       0.762279894306       1402.84       9.24370
47.5059382423       0.734894952329       1424.34       3.10020
48.0060007501       0.705917392465       1467.97       42.09073
48.5060632579       0.675627910014       1477.21       4.09602
49.0061257657       0.644312087155       1491.26       1.67358
49.5061882735       0.612256246492       1492.04       7.97109
50.0062507813       0.579743554375       1498.38       7.97893
50.5063132892       0.547050453485       1500.82       7.48656
51.006375797       0.51444349129       1503.84       8.36485
51.5064383048       0.482176596607       1510.18       55.45564
52.0065008126       0.450488841328       1511.29       2.21744
52.5065633204       0.419602708673       1545.06       69.00417
53.0066258282       0.389722873858       1609.25       4.24594
53.506688336       0.361035488063       1631.74       19.38857
54.0067508439       0.333707942579       1661.90       110.86749
54.5068133517       0.307889077357       2209.97       19.96821
55.0068758595       0.283709787064       2999.73       29.41533
55.5069383673       0.261283968555       3008.40       37.94023
56.0070008751       0.240709746376       3018.66       10.71833
56.5070633829       0.22207090772       3031.03       30.22067
57.0071258907       0.205438475173       3045.62       52.31578
57.5071883985       0.190872344559       3050.95       13.69064
58.0072509064       0.178422916151       3061.52       12.53112
58.5073134142       0.168132650436       3063.39       33.58303
59.007375922       0.160037484193       3063.86       32.32820
59.5074384298       0.154168048973       3069.98       9.07299
60.0075009376       0.150550641659       3074.53       32.45221
60.5075634454       0.149207905792       3088.63       26.55339
61.0076259532       0.150159192241       3094.06       54.01313
61.5076884611       0.153420578666       3118.24       19.96664
62.0077509689       0.159004538607       3135.08       27.36367
62.5078134767       0.166919262899       3137.77       22.49557
63.0078759845       0.17716764804       3172.72       20.52287
63.5079384923       0.189745978049       3187.07       1.47501
64.0080010001       0.204642337826       3203.17       7.19403
64.5080635079       0.22183480688       3254.22       5.39153
65.0081260158       0.241289492177       3470.27       83.15598
65.5081885236       0.262958467519       3802.03       34.07140
66.0082510314       0.286777693964
66.5083135392       0.312665001095
67.008376047       0.34051821212
67.5084385548       0.370213496673
68.0085010626       0.401604033532
68.5085635704       0.434519061237
69.0086260783       0.46876338764
69.5086885861       0.504117419854
70.0087510939       0.540337764004
70.5088136017       0.577158429811
71.0088761095       0.614292658761
71.5089386173       0.651435376739
72.0090011251       0.688266253219
72.509063633       0.724453329742
73.0091261408       0.759657161394
73.5091886486       0.793535396752
74.0092511564       0.82574770509
74.5093136642       0.85596094518
75.009376172       0.883854458334
75.5094386798       0.909125359968
76.0095011876       0.931493699328
76.5095636955       0.95070735642
77.0096262033       0.966546548704
77.5096887111       0.97882782781
78.0097512189       0.987407458196
78.5098137267       0.992184084937
79.0098762345       0.99310061629
79.5099387423       0.990145267694
80.0100012502       0.983351736639
80.510063758       0.972798501761
81.0101262658       0.958607263534
81.5101887736       0.940940567422
82.0102512814       0.919998672306
82.5103137892       0.896015746792
83.010376297       0.86925549297
83.5104388049       0.840006310678
84.0105013127       0.808576125111
84.5105638205       0.77528700629
85.0106263283       0.7404697105
85.5106888361       0.704458271344
86.0107513439       0.667584761803
86.5108138517       0.630174338949
87.0108763595       0.592540670308
87.5109388674       0.554981825777
88.0110013752       0.517776702168
88.511063883       0.481182029553
89.0111263908       0.44542999022
89.5111888986       0.410726462977
90.0112514064       0.377249888243
90.5113139142       0.345150733464
91.0113764221       0.314551524274
91.5114389299       0.285547394816
92.0115014377       0.258207101069
92.5115639455       0.232574433859
93.0116264533       0.208669963693
93.5116889611       0.18649304738
94.0117514689       0.166024026572
94.5118139767       0.147226550576
95.0118764846       0.130049959834
95.5119389924       0.114431671918
96.0120015002       0.100299518582
96.512064008       0.0875739898037
97.0121265158       0.0761703486971
97.5121890236       0.0660005892213
98.0122515314       0.0569752165725
98.5123140393       0.0490048377299
99.0123765471       0.0420015566568
99.5124390549       0.0358801749694
100.012501563       0.0305592043785
100.512564071       0.0259617018062
101.012626578       0.0220159417575
101.512689086       0.0186559432828
102.012751594       0.0158218707424
102.512814102       0.0134603286179
103.01287661       0.0115245708876
103.512939117       0.00997464506645
104.013001625       0.0087774899839
104.513064133       0.00790700483091
105.013126641       0.00734410501681
105.513189149       0.00707677802377
106.013251656       0.00710014979647
106.513314164       0.00741656932149
107.013376672       0.00803571599312
107.51343918       0.00897473118285
108.013501688       0.0102583721798
108.513564196       0.0119191833996
109.013626703       0.0139976765226
109.513689211       0.0165425080759
110.013751719       0.0196106399838
110.513814227       0.0232674658403
111.013876735       0.0275868832029
111.513939242       0.0326512901328
112.01400175       0.0385514826332
112.514064258       0.0453864286423
113.014126766       0.0532628939424
113.514189274       0.0622948958315
114.014251781       0.0726029617758
114.514314289       0.0843131725854
115.014376797       0.0975559729997
115.514439305       0.112464736949
116.014501813       0.129174080187
116.514564321       0.147817919416
117.014626828       0.168527284353
117.514689336       0.191427897331
118.014751844       0.216637543709
118.514814352       0.244263265513
119.01487686       0.274398419884
119.514939367       0.307119652941
120.015001875       0.342483848086
120.515064383       0.380525115382
121.015126891       0.421251894883
121.515189399       0.464644251535
122.015251906       0.510651441987
122.515314414       0.55918983425
123.015376922       0.610141259217
123.51543943       0.663351868636
124.015501938       0.718631567021
124.515564446       0.775754075306
125.015626953       0.834457671878
125.515689461       0.89444664229
126.015751969       0.955393452684
126.515814477       1.01694164432
127.015876985       1.07870942795
127.515939492       1.140293938
128.016002       1.20127608751
128.516064508       1.26122594757
129.016127016       1.3197085581
129.516189524       1.37629006334
130.016252032       1.43054405332
130.516314539       1.48205798473
131.016377047       1.53043954903
131.516439555       1.57532285471
132.016502063       1.61637429249
132.516564571       1.65329795844
133.016627078       1.68584051924
133.516689586       1.71379541622
134.016752094       1.7370063203
134.516814602       1.75536976711
135.01687711       1.76883692079
135.516939617       1.77741443522
136.017002125       1.78116440171
136.517064633       1.78020339257
137.017127141       1.77470062956
137.517189649       1.7648753242
138.017252157       1.75099325341
138.517314664       1.733362648
139.017377172       1.71232948332
139.51743968       1.68827227046
140.017502188       1.66159645283
140.517564696       1.63272851641
141.017627203       1.60210992332
141.517689711       1.5701909765
142.017752219       1.53742472009
142.517814727       1.5042609737
143.017877235       1.47114059189
143.517939742       1.43849003072
144.01800225       1.40671629341
144.518064758       1.37620231595
145.018127266       1.34730284207
145.518189774       1.32034082496
146.018252282       1.29560438153
146.518314789       1.27334431295
147.018377297       1.25377219457
147.518439805       1.23705902735
148.018502313       1.22333443384
148.518564821       1.21268637328
149.018627328       1.20516134308
149.518689836       1.20076502862
150.018752344       1.19946335909
150.518814852       1.20118392445
151.01887736       1.20581770817
151.518939867       1.21322109056
152.019002375       1.22321808033
152.519064883       1.23560273502
153.019127391       1.25014173597
153.519189899       1.26657708863
154.019252407       1.28462892509
154.519314914       1.30399839156
155.019377422       1.32437060932
155.51943993       1.34541770266
156.019502438       1.36680189129
156.519564946       1.38817864747
157.019627453       1.40919991902
157.519689961       1.42951741886
158.019752469       1.44878597914
158.519814977       1.46666696378
159.019877485       1.48283172748
159.519939992       1.49696510208
160.0200025       1.50876888296
160.520065008       1.5179652799
161.020127516       1.52430028795
161.520190024       1.52754692632
162.020252532       1.52750828636
162.520315039       1.52402032477
163.020377547       1.51695433532
163.520440055       1.50621903207
164.020502563       1.49176217945
164.520565071       1.47357171038
165.020627578       1.45167628133
165.520690086       1.42614522497
166.020752594       1.39708787398
166.520815102       1.36465224556
167.02087761       1.32902309255
167.520940118       1.29041934532
168.021002625       1.24909098564
168.521065133       1.20531541149
169.021127641       1.15939336704
169.521190149       1.11164452616
170.021252657       1.062402829
170.521315164       1.01201167953
171.021377672       0.960819117052
171.52144018       0.909173076444
172.021502688       0.857416849924
172.521565196       0.805884858239
173.021627703       0.754898830797
173.521690211       0.704764483465
174.021752719       0.655768769519
174.521815227       0.608177764327
175.021877735       0.562235228188
175.521940243       0.518161874968
176.02200275       0.476155357247
176.522065258       0.436390962126
177.022127766       0.399022996012
177.522190274       0.364186821997
178.022252782       0.332001499999
178.522315289       0.302572967893
179.022377797       0.275997691393
179.522440305       0.252366701412
180.022502813       0.231769930054
180.522565321       0.214300749891
181.022627828       0.200060615899
181.522690336       0.189163704885
182.022752844       0.181741443543
182.522815352       0.177946813197
183.02287786       0.177958316853
183.522940368       0.181983492403
184.023002875       0.190261854937
184.523065383       0.20306715127
185.023127891       0.220708811339
185.523190399       0.243532484554
186.023252907       0.271919554818
186.523315414       0.306285536435
187.023377922       0.347077264805
187.52344043       0.394768811302
188.023502938       0.449856071274
188.523565446       0.512849998015
189.023627953       0.584268483897
189.523690461       0.664626922495
190.023752969       0.754427522157
190.523815477       0.85414748142
191.023877985       0.964226179083
191.523940493       1.08505157554
192.024003       1.21694606565
192.524065508       1.36015206539
193.024128016       1.51481765331
193.524190524       1.68098262077
194.024253032       1.85856531137
194.524315539       2.04735064665
195.024378047       2.24697974167
195.524440555       2.45694150789
196.024503063       2.67656662208
196.524565571       2.90502420644
197.024628079       3.14132151845
197.524690586       3.38430688837
198.024753094       3.63267606889
198.524815602       3.88498207778
199.02487811       4.13964852156
199.524940618       4.39498628954
200.025003125       4.64921340654
200.525065633       4.90047773196
201.025128141       5.14688209688
201.525190649       5.38651138346
202.025253157       5.61746097478
202.525315664       5.83786594285
203.025378172       6.04593030017
203.52544068       6.23995561758
204.025503188       6.4183683113
204.525565696       6.57974492375
205.025628204       6.72283476733
205.525690711       6.8465793661
206.025753219       6.95012821474
206.525815727       7.03285047581
207.025878235       7.09434234991
207.525940743       7.13442997675
208.02600325       7.15316785204
208.526065758       7.15083287245
209.026128266       7.12791424282
209.526190774       7.08509959302
210.026253282       7.02325775125
210.526315789       6.94341870362
211.026378297       6.84675133336
211.526440805       6.73453957538
212.026503313       6.60815764158
212.526565821       6.46904497022
213.026628329       6.31868152856
213.526690836       6.15856405411
214.026753344       5.9901837588
214.526815852       5.81500594418
215.02687836       5.63445188925
215.526940868       5.44988327828
216.027003375       5.26258933849
216.527065883       5.07377676012
217.027128391       4.88456237884
217.527190899       4.69596851389
218.027253407       4.50892078029
218.527315914       4.32424812941
219.027378422       4.14268482306
219.52744093       3.9648740112
220.027503438       3.79137256407
220.527565946       3.62265680476
221.027628454       3.45912879748
221.527690961       3.30112286862
222.027753469       3.14891207054
222.527815977       3.00271433898
223.027878485       2.86269814323
223.527940993       2.72898747931
224.0280035       2.60166611046
224.528066008       2.48078101128
225.028128516       2.36634502219
225.528191024       2.25833876581
226.028253532       2.15671191632
226.52831604       2.06138394407
227.028378547       1.9722444816
227.528441055       1.88915347189
228.028503563       1.81194126579
228.528566071       1.74040883329
229.028628579       1.67432824295
229.528691086       1.61344354689
230.028753594       1.55747218527
230.528816102       1.50610699687
231.02887861       1.45901889105
231.528941118       1.41586020393
232.029003625       1.37626872807
232.529066133       1.33987237313
233.029128641       1.30629438468
233.529191149       1.27515902188
234.029253657       1.24609757235
234.529316165       1.21875456498
