#  x                 y             frequency           intensity
0.0       0.0118130275829       21.95       0.50722
0.500062507813       0.0139981794205       26.73       0.01341
1.00012501563       0.0165229797777       41.77       0.55567
1.50018752344       0.0194272746944       51.75       0.65362
2.00025003125       0.0227531916005       80.80       0.78126
2.50031253907       0.0265448310746       131.99       0.35148
3.00037504688       0.0308478643854       138.47       0.78327
3.50043755469       0.0357090310517       143.78       0.10346
4.00050006251       0.04117553266       152.69       0.75190
4.50056257032       0.0472943216454       174.43       1.80549
5.00062507813       0.0541112866569       212.90       2.85912
5.50068758595       0.0616703394585       219.95       8.70869
6.00075009376       0.0700124119928       232.12       0.90737
6.50081260158       0.0791743761838       248.41       2.06758
7.00087510939       0.0891879031574       268.70       7.35190
7.5009376172       0.100078282697       273.04       31.25195
8.00100012502       0.11186322776       300.07       45.69096
8.50106263283       0.124551692626       321.78       23.31637
9.00112514064       0.138142736491       335.60       2.44038
9.50118764846       0.15262446699       347.38       1.52326
10.0012501563       0.167973099914       362.62       1.14260
10.5013126641       0.18415217225       398.85       1.81082
11.0013751719       0.201111945394       409.62       1.03073
11.5014376797       0.218789033873       441.73       3.44713
12.0015001875       0.237106292097       458.95       5.07250
12.5015626953       0.255972987514       476.82       5.03737
13.0016252032       0.275285283056       516.42       11.63371
13.501687711       0.294927045046       527.60       4.68873
14.0017502188       0.314770984884       541.43       3.33570
14.5018127266       0.334680134052       552.19       0.88841
15.0018752344       0.354509642471       566.21       1.78936
15.5019377422       0.374108880344       590.29       2.27930
16.00200025       0.393323813584       605.64       0.11415
16.5020627578       0.411999613105       632.53       3.70287
17.0021252657       0.429983449075       653.27       48.46943
17.5021877735       0.447127412921       655.51       7.01371
18.0022502813       0.4632915029       664.52       50.27710
18.5023127891       0.478346603611       668.78       4.30463
19.0023752969       0.492177386284       706.94       6.54024
19.5024378047       0.504685055145       734.44       15.33082
20.0025003125       0.515789865875       764.66       11.87596
20.5025628204       0.525433345096       784.60       3.99495
21.0026253282       0.533580145048       797.14       0.74105
21.502687836       0.540219474938       810.54       7.50696
22.0027503438       0.545366059796       837.13       20.07614
22.5028128516       0.549060588684       846.91       7.65272
23.0028753594       0.55136962659       859.51       17.20165
23.5029378672       0.552384977825       865.87       2.22404
24.003000375       0.552222502835       882.59       25.96037
24.5030628829       0.5510204047       883.87       11.96620
25.0031253907       0.548937015587       900.98       23.24260
25.5031878985       0.546148126825       936.93       2.93663
26.0032504063       0.542843918461       941.32       13.05753
26.5033129141       0.539225554931       947.35       11.93421
27.0033754219       0.535501522332       961.12       7.02494
27.5034379297       0.531883789625       985.71       1.62980
28.0035004376       0.528583880541       988.92       0.46568
28.5035629454       0.525808945032       993.43       0.43950
29.0036254532       0.523757918666       1016.10       15.56412
29.503687961       0.522617855476       1026.14       17.60000
30.0037504688       0.522560514485       1045.61       17.39769
30.5038129766       0.523739272761       1056.24       0.89752
31.0038754844       0.526286428448       1060.81       42.99159
31.5039379922       0.530310946239       1067.07       1.40387
32.0040005001       0.535896685518       1075.57       22.22772
32.5040630079       0.543101138178       1103.16       17.80456
33.0041255157       0.551954689521       1116.80       104.69548
33.5041880235       0.562460401905       1125.57       10.70749
34.0042505313       0.574594307478       1154.88       6.99101
34.5043130391       0.58830618376       1159.93       10.62955
35.0043755469       0.603520774421       1172.10       0.95046
35.5044380548       0.620139407709       1176.46       2.93159
36.0045005626       0.638041956843       1207.68       7.10363
36.5045630704       0.65708908063       1220.96       9.13803
37.0046255782       0.677124678635       1234.16       33.52052
37.504688086       0.697978493621       1238.71       15.21672
38.0047505938       0.719468794611       1253.28       0.22361
38.5048131016       0.741405076745       1262.12       65.64535
39.0048756095       0.763590718966       1271.74       108.95491
39.5049381173       0.785825547179       1276.20       8.64382
40.0050006251       0.807908258642       1289.26       19.97551
40.5050631329       0.829638672516       1291.03       33.41668
41.0051256407       0.850819781376       1327.38       6.24244
41.5051881485       0.871259588616       1333.03       4.90751
42.0052506563       0.89077272657       1340.19       18.39028
42.5053131641       0.90918185945       1344.74       8.30324
43.005375672       0.926318883439       1349.25       38.66141
43.5054381798       0.942025943144       1355.25       3.94321
44.0055006876       0.956156288779       1357.42       5.11639
44.5055631954       0.968575001812       1371.33       8.18313
45.0056257032       0.979159618183       1382.34       5.51347
45.505688211       0.987800677653       1386.27       10.61920
46.0057507188       0.994402225423       1391.18       0.95737
46.5058132267       0.998882288114       1403.58       2.23272
47.0058757345       1.00117334077       1418.69       1.56727
47.5059382423       1.00122277512       1433.30       12.86142
48.0060007501       0.998993372278       1467.55       39.72433
48.5060632579       0.994463775872       1477.34       3.98985
49.0061257657       0.987628954621       1491.88       3.64616
49.5061882735       0.978500637115       1493.14       7.76593
50.0062507813       0.967107696399       1499.32       7.32832
50.5063132892       0.953496458095       1501.18       7.71641
51.006375797       0.937730903621       1502.68       3.24117
51.5064383048       0.919892739635       1507.66       56.80580
52.0065008126       0.900081306131       1512.95       3.09192
52.5065633204       0.878413298725       1544.82       80.15737
53.0066258282       0.855022285292       1609.07       6.40506
53.506688336       0.830058003069       1631.72       25.12397
54.0067508439       0.803685429264       1661.78       109.29238
54.5068133517       0.7760836258       2212.88       19.81347
55.0068758595       0.747444366552       3009.37       34.60009
55.5069383673       0.71797056298       3012.44       13.51392
56.0070008751       0.687874510991       3017.90       17.65356
56.5070633829       0.65737598781       3029.23       24.66626
57.0071258907       0.626700232282       3040.34       61.97820
57.5071883985       0.596075845171       3052.20       9.25310
58.0072509064       0.565732647533       3059.11       15.19003
58.5073134142       0.535899534993       3060.78       45.03197
59.007375922       0.506802363914       3063.84       14.69457
59.5074384298       0.478661902073       3065.13       31.31502
60.0075009376       0.45169187181       3076.92       30.32912
60.5075634454       0.42609710797       3084.38       73.65659
61.0076259532       0.402071846729       3104.45       13.07838
61.5076884611       0.379798154826       3137.67       26.84999
62.0077509689       0.35944450239       3139.32       24.72753
62.5078134767       0.341164476688       3149.60       1.97086
63.0078759845       0.325095629119       3187.89       1.23345
63.5079384923       0.311358444004       3200.31       3.95789
64.0080010001       0.300055415282       3203.48       6.39296
64.5080635079       0.291270216372       3225.72       4.07700
65.0081260158       0.285066949215       3472.19       77.98959
65.5081885236       0.28148946079       3799.22       33.36425
66.0082510314       0.280560719184
66.5083135392       0.282282246257
67.008376047       0.286633609831
67.5084385548       0.293571984855
68.0085010626       0.303031799591
68.5085635704       0.314924489287
69.0086260783       0.329138385502
69.5086885861       0.345538773797
70.0087510939       0.363968155664
70.5088136017       0.384246751829
71.0088761095       0.40617328337
71.5089386173       0.429526064165
72.0090011251       0.454064433109
72.509063633       0.479530547212
73.0091261408       0.505651547544
73.5091886486       0.532142098988
74.0092511564       0.55870729263
74.5093136642       0.58504588651
75.009376172       0.6108538471
75.5094386798       0.635828140776
76.0095011876       0.659670712211
76.5095636955       0.682092575767
77.0096262033       0.702817936928
77.5096887111       0.721588254247
78.0097512189       0.738166148435
78.5098137267       0.75233906439
79.0098762345       0.763922594355
79.5099387423       0.772763375925
80.0100012502       0.7787414873
80.510063758       0.78177227361
81.0101262658       0.781807552128
81.5101887736       0.778836160069
82.0102512814       0.77288382606
82.5103137892       0.764012364549
83.010376297       0.752318210695
83.5104388049       0.737930331152
84.0105013127       0.721007562794
84.5105638205       0.70173544636
85.0106263283       0.680322634692
85.5106888361       0.656996965257
86.0107513439       0.632001293696
86.5108138517       0.605589189049
87.0108763595       0.578020592013
87.5109388674       0.54955753517
88.0110013752       0.520460018768
88.511063883       0.490982127636
89.0111263908       0.46136846457
89.5111888986       0.431850963473
90.0112514064       0.402646132213
90.5113139142       0.373952761014
91.0113764221       0.345950117875
91.5114389299       0.318796638386
92.0115014377       0.292629103945
92.5115639455       0.267562290108
93.0116264533       0.243689056022
93.5116889611       0.221080836782
94.0117514689       0.199788493354
94.5118139767       0.179843469468
95.0118764846       0.161259201611
95.5119389924       0.144032726892
96.0120015002       0.128146433979
96.512064008       0.113569904299
97.0121265158       0.100261794074
97.5121890236       0.0881717122712
98.0122515314       0.0772420548306
98.5123140393       0.0674097615162
99.0123765471       0.0586079679099
99.5124390549       0.0507675314149
100.012501563       0.0438184162917
100.512564071       0.0376909286021
101.012626578       0.0323167973071
101.512689086       0.027630102544
102.012751594       0.0235680562156
102.512814102       0.0200716434079
103.01287661       0.0170861358029
103.512939117       0.0145614901727
104.013001625       0.0124526462617
104.513064133       0.0107197389416
105.013126641       0.00932823951205
105.513189149       0.00824904049265
106.013251656       0.00745849729147
106.513314164       0.00693843880368
107.013376672       0.0066761573834
107.51343918       0.00666438680337
108.013501688       0.00690127484356
108.513564196       0.00739035509318
109.013626703       0.00814052046675
109.513689211       0.00916599887592
110.013751719       0.010486329511
110.513814227       0.0121263363108
111.013876735       0.0141160934751
111.513939242       0.0164908763361
112.01400175       0.019291089585
112.514064258       0.0225621637792
113.014126766       0.0263544102637
113.514189274       0.0307228241484
114.014251781       0.0357268248247
114.514314289       0.0414299236899
115.014376797       0.0478993093026
115.514439305       0.0552053411239
116.014501813       0.0634209443116
116.514564321       0.0726208997372
117.014626828       0.0828810254635
117.514689336       0.0942772483489
118.014751844       0.106884567198
118.514814352       0.120775911913
119.01487686       0.136020906391
119.514939367       0.152684546332
120.015001875       0.170825806717
120.515064383       0.190496197238
121.015126891       0.211738287498
121.515189399       0.234584227097
122.015251906       0.259054288766
122.515314414       0.285155465368
123.015376922       0.312880153725
123.51543943       0.342204959768
124.015501938       0.37308966032
124.515564446       0.405476356813
125.015626953       0.439288855338
125.515689461       0.474432305535
126.015751969       0.510793127895
126.515814477       0.548239255116
127.015876985       0.586620708054
127.515939492       0.625770520805
128.016002       0.665506022386
128.516064508       0.705630474601
129.016127016       0.745935057056
129.516189524       0.786201181132
130.016252032       0.82620310522
130.516314539       0.86571081397
131.016377047       0.904493114939
131.516439555       0.942320897197
132.016502063       0.978970488432
132.516564571       1.0142270403
133.016627078       1.04788786643
133.516689586       1.0797656539
134.016752094       1.10969146775
134.516814602       1.1375174687
135.01687711       1.16311926776
135.516939617       1.18639784717
136.017002125       1.20728098563
136.517064633       1.22572413662
137.017127141       1.24171072177
137.517189649       1.25525181641
138.017252157       1.26638522119
138.517314664       1.27517393144
139.017377172       1.28170403453
139.51743968       1.28608208356
140.017502188       1.28843201376
140.517564696       1.28889168396
141.017627203       1.28760913994
141.517689711       1.28473870815
142.017752219       1.28043703666
142.517814727       1.27485920539
143.017877235       1.26815502817
143.517939742       1.26046566666
144.01800225       1.25192066816
144.518064758       1.24263552863
145.018127266       1.23270986676
145.518189774       1.22222627644
146.018252282       1.21124990417
146.518314789       1.1998287742
147.018377297       1.18799485981
147.518439805       1.17576587418
148.018502313       1.16314772928
148.518564821       1.15013758807
149.018627328       1.13672741386
149.518689836       1.12290790201
150.018752344       1.10867266411
150.518814852       1.0940225238
151.01887736       1.07896977634
151.518939867       1.06354226194
152.019002375       1.04778710543
152.519064883       1.03177398144
153.019127391       1.01559777582
153.519189899       0.99938052891
154.019252407       0.983272564964
154.519314914       0.967452733462
155.019377422       0.952127711506
155.51943993       0.937530341835
156.019502438       0.923917006896
156.519564946       0.911564065626
157.019627453       0.900763405269
157.519689961       0.891817185168
158.019752469       0.885031872405
158.519814977       0.880711689949
159.019877485       0.879151616213
159.519939992       0.880630090139
160.0200025       0.88540158795
160.520065008       0.893689246177
161.020127516       0.905677710296
161.520190024       0.921506389203
162.020252532       0.941263292626
162.520315039       0.964979621465
163.020377547       0.992625269822
163.520440055       1.02410538242
164.020502563       1.05925809206
164.520565071       1.09785353924
165.020627578       1.1395942501
165.520690086       1.18411692009
166.020752594       1.23099561952
166.520815102       1.27974640414
167.02087761       1.32983327989
167.520940118       1.38067543674
168.021002625       1.43165563279
168.521065133       1.48212957808
169.021127641       1.53143613803
169.521190149       1.57890815094
170.021252657       1.62388363273
170.521315164       1.66571712651
171.021377672       1.70379094492
171.52144018       1.73752605043
172.021502688       1.76639232302
172.521565196       1.78991797606
173.021627703       1.80769789953
173.521690211       1.81940073526
174.021752719       1.82477451958
174.521815227       1.82365076546
175.021877735       1.81594689649
175.521940243       1.80166698828
176.02200275       1.78090081764
176.522065258       1.75382126427
177.022127766       1.72068015332
177.522190274       1.68180266685
178.022252782       1.63758048898
178.522315289       1.58846387969
179.022377797       1.53495289712
179.522440305       1.47758800574
180.022502813       1.41694031787
180.522565321       1.35360171879
181.022627828       1.28817512128
181.522690336       1.22126508352
182.022752844       1.15346900675
182.522815352       1.08536910556
183.02287786       1.01752531602
183.522940368       0.950469275639
184.023002875       0.884699475891
184.523065383       0.820677653646
185.023127891       0.758826453581
185.523190399       0.699528360502
186.023252907       0.643125869399
186.523315414       0.589922832686
187.023377922       0.540186899107
187.52344043       0.494152937527
188.023502938       0.452027321538
188.523565446       0.413992937563
189.023627953       0.38021476972
189.523690461       0.350845909
190.023752969       0.326033831898
190.523815477       0.305926794078
191.023877985       0.290680187594
191.523940493       0.280462715004
192.024003       0.275462240144
192.524065508       0.275891182763
193.024128016       0.281991332474
193.524190524       0.29403796621
194.024253032       0.312343162349
194.524315539       0.337258213953
195.024378047       0.369175052908
195.524440555       0.408526606506
196.024503063       0.455786017995
196.524565571       0.511464673389
197.024628079       0.57610898823
197.524690586       0.650295920642
198.024753094       0.734627190886
198.524815602       0.829722203125
199.02487811       0.936209682352
199.524940618       1.05471805866
200.025003125       1.18586465215
200.525065633       1.33024373516
201.025128141       1.48841357331
201.525190649       1.66088257412
202.025253157       1.84809469975
202.525315664       2.0504143299
203.025378172       2.26811079033
203.52544068       2.5013427917
204.025503188       2.75014305152
204.525565696       3.01440339804
205.025628204       3.29386067782
205.525690711       3.58808380733
206.025753219       3.89646232227
206.525815727       4.21819678497
207.025878235       4.55229140911
207.525940743       4.8975492512
208.02600325       5.25257029854
208.526065758       5.61575275317
209.026128266       5.98529777019
209.526190774       6.35921785626
210.026253282       6.73534907073
210.526315789       7.11136709806
211.026378297       7.48480717703
211.526440805       7.85308778127
212.026503313       8.2135378493
212.526565821       8.56342726219
213.026628329       8.90000016719
213.526690836       9.22051064807
214.026753344       9.52226015242
214.526815852       9.80263600477
215.02687836       10.0591502669
215.526940868       10.2894781559
216.027003375       10.4914951977
216.527065883       10.663312287
217.027128391       10.8033078349
217.527190899       10.9101562269
218.027253407       10.9828518771
218.527315914       11.0207282495
219.027378422       11.0234713282
219.52744093       10.9911271451
220.027503438       10.9241031173
220.527565946       10.8231631005
221.027628454       10.6894162237
221.527690961       10.5242997328
222.027753469       10.3295562243
222.527815977       10.1072057955
223.027878485       9.8595137671
223.527940993       9.58895474221
224.0280035       9.29817385062
224.528066008       8.98994608387
225.028128516       8.66713465566
225.528191024       8.33264932089
226.028253532       7.98940555596
226.52831604       7.64028544565
227.028378547       7.28810103938
227.528441055       6.93556083668
228.028503563       6.58523994163
228.528566071       6.2395542954
229.028628579       5.9007392585
229.528691086       5.57083267676
230.028753594       5.25166243184
230.528816102       4.94483835335
231.02887861       4.65174825989
231.528941118       4.37355780344
232.029003625       4.11121371908
232.529066133       3.86545003048
233.029128641       3.63679673256
233.529191149       3.42559046563
234.029253657       3.2319867081
234.529316165       3.05597304684
