#  x                 y             frequency           intensity
0.0       0.012371622449       15.98       0.09038
0.500062507813       0.0140017642071       32.42       0.28991
1.00012501563       0.0157867784856       42.82       0.03798
1.50018752344       0.0177323329162       58.07       1.01802
2.00025003125       0.0198430175262       70.39       1.72832
2.50031253907       0.0221221811046       111.61       0.99816
3.00037504688       0.0245717809507       139.53       0.33624
3.50043755469       0.0271922521612       151.13       2.48869
4.00050006251       0.0299824027815       160.17       0.27637
4.50056257032       0.0329393410991       181.49       2.42131
5.00062507813       0.0360584410767       199.82       1.49837
5.50068758595       0.0393333513779       221.62       2.99279
6.00075009376       0.0427560526261       231.24       0.78538
6.50081260158       0.0463169664463       247.46       3.75942
7.00087510939       0.0500051184861       257.28       1.26926
7.5009376172       0.0538083560063       265.60       27.11347
8.00100012502       0.0577136188196       303.55       69.24171
8.50106263283       0.0617072603724       316.91       46.20235
9.00112514064       0.0657754136708       328.82       3.28475
9.50118764846       0.0699043946238       344.49       5.45260
10.0012501563       0.0740811332803       359.83       0.80960
10.5013126641       0.0782936214668       396.05       1.20137
11.0013751719       0.0825313635765       417.04       0.37870
11.5014376797       0.0867858158014       430.60       0.25594
12.0015001875       0.0910507980311       453.57       2.04363
12.5015626953       0.0953228620386       472.78       3.72895
13.0016252032       0.0996015995035       516.11       8.24685
13.501687711       0.103889873938       532.66       1.87923
14.0017502188       0.108193961712       542.13       4.99520
14.5018127266       0.112523589155       560.11       1.24727
15.0018752344       0.116891855057       577.94       10.12731
15.5019377422       0.121315030922       591.13       1.65545
16.00200025       0.125812234741       607.16       0.45797
16.5020627578       0.130404978018       633.76       5.22693
17.0021252657       0.135116590012       646.08       26.48780
17.5021877735       0.139971527556       652.23       46.17338
18.0022502813       0.144994583321       663.36       54.75323
18.5023127891       0.15021000971       674.48       4.78546
19.0023752969       0.155640579642       706.11       7.28512
19.5024378047       0.1613066091       722.74       11.64370
20.0025003125       0.167224969314       749.39       3.13259
20.5025628204       0.173408118724       771.53       7.60259
21.0026253282       0.179863186208       792.30       1.94611
21.502687836       0.186591137518       809.00       19.72592
22.0027503438       0.193586056182       833.59       15.75499
22.5028128516       0.200834568478       846.24       4.39149
23.0028753594       0.208315439312       849.16       4.74977
23.5029378672       0.215999362084       867.79       2.52477
24.003000375       0.223848960949       880.84       35.73577
24.5030628829       0.231819018471       905.59       4.40727
25.0031253907       0.239856935532       923.09       6.91567
25.5031878985       0.247903423941       926.70       6.10640
26.0032504063       0.255893425419       940.50       5.75110
26.5033129141       0.263757243998       947.56       14.36628
27.0033754219       0.271421872377       963.55       16.46820
27.5034379297       0.278812486866       972.40       1.43134
28.0035004376       0.285854080213       980.03       1.87788
28.5035629454       0.29247319722       987.82       2.23537
29.0036254532       0.298599734679       1020.17       35.31784
29.503687961       0.304168764851       1027.32       8.65841
30.0037504688       0.309122340735       1048.76       19.55964
30.5038129766       0.313411241489       1052.05       9.25064
31.0038754844       0.316996617767       1069.52       12.58751
31.5039379922       0.319851499226       1074.78       32.78034
32.0040005001       0.321962129922       1076.17       29.53428
32.5040630079       0.323329101652       1102.45       41.65929
33.0041255157       0.323968260259       1119.66       52.02000
33.5041880235       0.323911365337       1126.21       15.00339
34.0042505313       0.323206489406       1156.94       1.89745
34.5043130391       0.321918148291       1169.30       10.74327
35.0043755469       0.320127159886       1172.07       0.81992
35.5044380548       0.317930233653       1176.50       0.36768
36.0045005626       0.315439297767       1198.27       41.35001
36.5045630704       0.312780574905       1218.47       36.58249
37.0046255782       0.310093421038       1223.93       27.24089
37.504688086       0.307528944328       1239.21       11.32400
38.0047505938       0.305248423377       1254.93       9.18695
38.5048131016       0.303421545629       1257.86       8.36094
39.0048756095       0.30222448794       1277.00       2.42118
39.5049381173       0.301837862183       1287.45       60.41584
40.0050006251       0.302444549494       1289.67       50.00152
40.5050631329       0.304227447499       1295.77       171.37931
41.0051256407       0.307367155721       1313.46       4.16155
41.5051881485       0.312039625434       1330.75       4.40193
42.0052506563       0.318413801585       1338.21       10.82314
42.5053131641       0.32664928606       1344.61       2.26987
43.005375672       0.336894053416       1353.40       2.33178
43.5054381798       0.34928225228       1354.83       19.40922
44.0055006876       0.363932127532       1360.02       8.74048
44.5055631954       0.380944100231       1370.57       9.50909
45.0056257032       0.400399043468       1378.27       0.69576
45.505688211       0.422356792901       1386.09       0.67516
46.0057507188       0.446854930204       1390.47       1.70064
46.5058132267       0.47390787592       1401.85       5.58038
47.0058757345       0.503506324849       1411.54       0.52109
47.5059382423       0.535617052161       1427.23       12.28005
48.0060007501       0.570183111615       1458.04       14.00282
48.5060632579       0.607124438723       1480.37       4.68422
49.0061257657       0.646338861462       1492.13       4.96040
49.5061882735       0.687703509467       1495.53       7.48842
50.0062507813       0.73107659985       1498.77       26.53470
50.5063132892       0.77629956434       1500.05       6.19760
51.006375797       0.823199468918       1500.41       12.69931
51.5064383048       0.871591664051       1506.70       27.91360
52.0065008126       0.921282591818       1512.09       2.96116
52.5065633204       0.972072666221       1549.42       122.25990
53.0066258282       1.02375913559       1601.48       15.99877
53.506688336       1.07613883164       1624.76       14.47802
54.0067508439       1.12901070926       1663.14       101.15366
54.5068133517       1.18217808424       2212.13       17.66306
55.0068758595       1.23545048415       3006.33       73.83269
55.5069383673       1.28864503906       3010.60       18.51416
56.0070008751       1.34158735482       3013.67       14.53373
56.5070633829       1.39411183114       3029.70       25.85149
57.0071258907       1.44606140888       3041.56       48.89657
57.5071883985       1.49728675568       3045.10       28.22364
58.0072509064       1.54764492466       3058.82       9.41749
58.5073134142       1.59699754643       3060.14       54.06707
59.007375922       1.64520863918       3061.58       29.88531
59.5074384298       1.69214214379       3062.00       34.63178
60.0075009376       1.73765930914       3077.89       28.79639
60.5075634454       1.7816160667       3085.51       65.97955
61.0076259532       1.82386054216       3118.24       8.29356
61.5076884611       1.86423085331       3133.06       21.87236
62.0077509689       1.90255333985       3136.90       24.53428
62.5078134767       1.93864135876       3151.50       1.80932
63.0078759845       1.9722947621       3168.76       17.09630
63.5079384923       2.00330014981       3193.09       1.91888
64.0080010001       2.03143196195       3213.64       8.75094
64.5080635079       2.05645444176       3248.02       8.17066
65.0081260158       2.0781244656       3472.59       70.11769
65.5081885236       2.09619519917       3800.90       31.84439
66.0082510314       2.11042050325
66.5083135392       2.12055997763
67.008376047       2.12638450154
67.5084385548       2.12768210276
68.0085010626       2.12426396812
68.5085635704       2.11597039553
69.0086260783       2.1026764829
69.5086885861       2.08429735256
70.0087510939       2.06079272098
70.5088136017       2.03217064239
71.0088761095       1.99849028028
71.5089386173       1.95986359223
72.0090011251       1.91645584891
72.509063633       1.86848494686
73.0091261408       1.81621951455
73.5091886486       1.7599758509
74.0092511564       1.70011377315
74.5093136642       1.63703148578
75.009376172       1.57115961189
75.5094386798       1.50295455287
76.0095011876       1.43289136007
76.5095636955       1.36145631337
77.0096262033       1.28913940545
77.5096887111       1.21642692747
78.0097512189       1.14379434291
78.5098137267       1.07169962038
79.0098762345       1.00057717661
79.5099387423       0.930832555832
80.0100012502       0.862837945298
80.510063758       0.796928597338
81.0101262658       0.73340019916
81.5101887736       0.672507202683
82.0102512814       0.614462099294
82.5103137892       0.559435599413
83.010376297       0.507557654793
83.5104388049       0.458919243021
84.0105013127       0.413574819137
84.5105638205       0.371545328683
85.0106263283       0.332821669845
85.5106888361       0.297368489511
86.0107513439       0.26512819859
86.5108138517       0.236025095569
87.0108763595       0.209969493438
87.5109388674       0.186861753308
88.0110013752       0.166596137751
88.511063883       0.149064407635
89.0111263908       0.134159097484
89.5111888986       0.121776415826
90.0112514064       0.111818728207
90.5113139142       0.104196591372
91.0113764221       0.098830317269
91.5114389299       0.0956510550163
92.0115014377       0.0946013877192
92.5115639455       0.095635449048
93.0116264533       0.0987185719111
93.5116889611       0.103826488446
94.0117514689       0.110944107046
94.5118139767       0.120063898343
95.0118764846       0.131183928077
95.5119389924       0.144305580673
96.0120015002       0.1594310231
96.512064008       0.176560464211
97.0121265158       0.195689270188
97.5121890236       0.216805001686
98.0122515314       0.239884442798
98.5123140393       0.264890695607
99.0123765471       0.29177041675
99.5124390549       0.320451273742
100.012501563       0.350839698541
100.512564071       0.382819013766
101.012626578       0.41624800283
101.512689086       0.450959988943
102.012751594       0.486762479365
102.512814102       0.523437420462
103.01287661       0.560742096164
103.512939117       0.598410687537
104.013001625       0.636156494738
104.513064133       0.67367480495
105.013126641       0.710646371609
105.513189149       0.746741451822
106.013251656       0.78162433102
106.513314164       0.814958247238
107.013376672       0.846410612587
107.51343918       0.875658417137
108.013501688       0.902393691089
108.513564196       0.926328895265
109.013626703       0.947202107917
109.513689211       0.964781877866
110.013751719       0.978871620111
110.513814227       0.989313440138
111.013876735       0.995991287034
111.513939242       0.998833352696
112.01400175       0.99781365435
112.514064258       0.992952759723
113.014126766       0.984317637578
113.514189274       0.972020640321
114.014251781       0.956217649034
114.514314289       0.937105433844
115.014376797       0.914918303162
115.514439305       0.8899241334
116.014501813       0.86241988563
116.514564321       0.832726726946
117.014626828       0.801184881589
117.514689336       0.768148340211
118.014751844       0.733979554913
118.514814352       0.699044243073
119.01487686       0.663706414892
119.514939367       0.628323728353
120.015001875       0.593243261544
120.515064383       0.558797776599
121.015126891       0.525302532523
121.515189399       0.493052686552
122.015251906       0.462321306032
122.515314414       0.433357995744
123.015376922       0.406388129595
123.51543943       0.381612661035
124.015501938       0.359208473872
124.515564446       0.339329224361
125.015626953       0.32210661682
125.515689461       0.307652048422
126.015751969       0.29605855422
126.515814477       0.287402980689
127.015876985       0.281748314847
127.515939492       0.279146096204
128.016002       0.279638840002
128.516064508       0.283262402325
129.016127016       0.290048220343
129.516189524       0.300025364206
130.016252032       0.313222340653
130.516314539       0.329668592375
131.016377047       0.349395641516
131.516439555       0.37243783055
132.016502063       0.398832619317
132.516564571       0.428620403367
133.016627078       0.461843826253
133.516689586       0.49854656716
134.016752094       0.538771595424
134.516814602       0.582558895277
135.01687711       0.62994267747
135.516939617       0.680948109238
136.017002125       0.735587610206
136.517064633       0.793856778912
137.017127141       0.855730032175
137.517189649       0.921156057038
138.017252157       0.990053191686
138.517314664       1.06230486682
139.017377172       1.1377552517
139.51743968       1.21620525855
140.017502188       1.29740906423
140.517564696       1.38107130909
141.017627203       1.46684512776
141.517689711       1.55433115638
142.017752219       1.64307764446
142.517814727       1.73258177681
143.017877235       1.82229228348
143.517939742       1.91161338255
144.01800225       1.99991006367
144.518064758       2.0865146804
145.018127266       2.17073477772
145.518189774       2.25186203954
146.018252282       2.32918220065
146.518314789       2.40198573056
147.018377297       2.46957906417
147.518439805       2.53129612801
148.018502313       2.58650989172
148.518564821       2.63464366429
149.018627328       2.6751818528
149.518689836       2.70767990983
150.018752344       2.7317732128
150.518814852       2.74718464484
151.01887736       2.75373068105
151.518939867       2.75132582493
152.019002375       2.73998528632
152.519064883       2.71982584183
153.019127391       2.69106487044
153.519189899       2.65401760823
154.019252407       2.60909271498
154.519314914       2.55678629046
155.019377422       2.49767451708
155.51943993       2.43240513768
156.019502438       2.36168800064
156.519564946       2.28628491965
157.019627453       2.20699910036
157.519689961       2.12466438308
158.019752469       2.04013453788
158.519814977       1.95427282849
159.019877485       1.86794203451
159.519939992       1.78199508938
160.0200025       1.69726645554
160.520065008       1.61456432075
161.020127516       1.53466366131
161.520190024       1.4583001814
162.020252532       1.3861651043
162.520315039       1.31890076195
163.020377547       1.25709690585
163.520440055       1.20128764505
164.020502563       1.1519489068
164.520565071       1.10949631233
165.020627578       1.07428336457
165.520690086       1.0465998551
166.020752594       1.02667041467
166.520815102       1.01465315304
167.02087761       1.01063835975
167.520940118       1.0146472651
168.021002625       1.02663088971
168.521065133       1.04646903914
169.021127641       1.07396952632
169.521190149       1.10886772728
170.021252657       1.15082659313
170.521315164       1.19943725328
171.021377672       1.25422034962
171.52144018       1.31462823866
172.021502688       1.38004818829
172.521565196       1.44980667755
173.021627703       1.52317488197
173.521690211       1.59937539473
174.021752719       1.67759019586
174.521815227       1.75696983877
175.021877735       1.83664377839
175.521940243       1.91573171824
176.02200275       1.99335580788
176.522065258       2.06865347911
177.022127766       2.1407906699
177.522190274       2.20897515295
178.022252782       2.27246966043
178.522315289       2.33060448115
179.022377797       2.38278920069
179.522440305       2.42852326044
180.022502813       2.46740502804
180.522565321       2.49913909892
181.022627828       2.52354158655
181.522690336       2.54054320616
182.022752844       2.55019001155
182.522815352       2.55264170629
183.02287786       2.54816751627
183.522940368       2.53713967827
184.023002875       2.5200246674
184.523065383       2.49737235133
185.023127891       2.46980332048
185.523190399       2.43799469736
186.023252907       2.40266477397
186.523315414       2.36455686232
187.023377922       2.32442276709
187.52344043       2.28300630261
188.023502938       2.24102727586
188.523565446       2.19916634564
189.023627953       2.15805114309
189.523690461       2.1182440042
190.023752969       2.08023161908
190.523815477       2.04441684928
191.023877985       2.01111290404
191.523940493       1.98054000056
192.024003       1.95282456563
192.524065508       1.92800096624
193.024128016       1.9060156896
193.524190524       1.8867338275
194.024253032       1.86994766072
194.524315539       1.85538708553
195.024378047       1.84273157888
195.524440555       1.83162336277
196.024503063       1.82168140098
196.524565571       1.8125158455
197.024628079       1.8037425433
197.524690586       1.79499721888
198.024753094       1.78594896147
198.524815602       1.77631266958
199.02487811       1.76586013652
199.524940618       1.75442949974
200.025003125       1.74193282098
200.525065633       1.72836161373
201.025128141       1.71379018689
201.525190649       1.69837672757
202.025253157       1.68236210089
202.525315664       1.66606639822
203.025378172       1.64988331732
203.52544068       1.63427250611
204.025503188       1.61975004697
204.525565696       1.60687729782
205.025628204       1.59624834107
205.525690711       1.58847632003
206.025753219       1.58417896506
206.525815727       1.58396362775
207.025878235       1.58841215176
207.525940743       1.59806591183
208.02600325       1.61341135046
208.526065758       1.63486633232
209.026128266       1.66276762205
209.526190774       1.69735977044
210.026253282       1.73878566818
210.526315789       1.78707899523
211.026378297       1.84215875817
211.526440805       1.90382606782
212.026503313       1.97176326543
212.526565821       2.04553545891
213.026628329       2.12459448112
213.526690836       2.20828523127
214.026753344       2.2958543092
214.526815852       2.38646080147
215.02687836       2.47918902911
215.526940868       2.57306302117
216.027003375       2.66706243635
216.527065883       2.76013961963
217.027128391       2.85123745137
217.527190899       2.93930762556
218.027253407       3.02332898149
218.527315914       3.10232551051
219.027378422       3.17538366606
219.52744093       3.24166862208
220.027503438       3.30043915079
220.527565946       3.35106082534
221.027628454       3.39301729524
221.527690961       3.42591943066
222.027753469       3.449512185
222.527815977       3.46367908068
223.027878485       3.46844428006
223.527940993       3.46397225896
224.0280035       3.45056515313
224.528066008       3.42865789614
225.028128516       3.39881130967
225.528191024       3.36170334205
226.028253532       3.31811867832
226.52831604       3.26893696417
227.028378547       3.21511989718
227.528441055       3.1576974419
228.028503563       3.09775342242
228.528566071       3.03641073644
229.028628579       2.97481642227
229.528691086       2.91412679381
230.028753594       2.85549284177
230.528816102       2.80004608261
231.02887861       2.74888502165
231.528941118       2.70306238473
232.029003625       2.66357326372
232.529066133       2.63134431671
233.029128641       2.60722416204
233.529191149       2.59197510764
234.029253657       2.58626636157
234.529316165       2.59066887438
235.029378672       2.60565196921
235.52944118       2.63158191689
236.029503688       2.66872261154
