#  x                 y             frequency           intensity
0.0       0.00214776205578       24.41       0.22544
0.500062507813       0.00259445324712       39.07       0.45231
1.00012501563       0.00312189328067       44.46       0.44357
1.50018752344       0.00374200134726       55.81       0.89902
2.00025003125       0.00446791409894       81.36       0.22798
2.50031253907       0.00531400729813       134.74       0.73491
3.00037504688       0.00629589657632       142.92       0.15702
3.50043755469       0.0074304135467       148.77       2.28972
4.00050006251       0.00873555359103       159.47       0.21292
4.50056257032       0.0102303918655       177.85       3.38027
5.00062507813       0.0119349644627       203.05       0.72352
5.50068758595       0.0138701122435       219.71       4.00429
6.00075009376       0.0160572856239       230.22       0.96077
6.50081260158       0.0185183095727       247.60       4.73533
7.00087510939       0.0212751092434       263.95       1.66976
7.5009376172       0.024349398011       265.94       18.14906
8.00100012502       0.0277623311951       306.04       84.17946
8.50106263283       0.0315341303836       321.86       26.22315
9.00112514064       0.0356836849833       339.39       7.36284
9.50118764846       0.0402281393616       350.55       8.74525
10.0012501563       0.0451824756335       372.37       4.49677
10.5013126641       0.0505591037257       391.55       0.75987
11.0013751719       0.0563674717176       402.16       1.17245
11.5014376797       0.0626137105545       447.23       2.95344
12.0015001875       0.0693003279438       465.13       2.07047
12.5015626953       0.0764259665186       490.56       7.18354
13.0016252032       0.0839852410988       512.29       3.32449
13.501687711       0.0919686690519       522.59       4.86603
14.0017502188       0.100362706295       543.11       7.01982
14.5018127266       0.109149899385       556.37       0.31058
15.0018752344       0.118309161397       565.06       1.37781
15.5019377422       0.127816175954       592.22       1.61592
16.00200025       0.137643929871       607.94       0.60279
16.5020627578       0.147763370526       633.62       5.43989
17.0021252657       0.158144179396       643.74       42.66499
17.5021877735       0.168755648337       647.40       27.62920
18.0022502813       0.179567640291       663.22       66.73916
18.5023127891       0.190551611421       677.55       4.21631
19.0023752969       0.201681667352       709.36       7.71036
19.5024378047       0.212935622446       719.18       10.50847
20.0025003125       0.224296028103       757.93       3.06060
20.5025628204       0.235751134086       774.88       8.26905
21.0026253282       0.24729574601       792.35       1.74995
21.502687836       0.258931942553       814.88       14.66159
22.0027503438       0.270669617704       832.46       13.35582
22.5028128516       0.282526816492       846.41       7.60436
23.0028753594       0.294529837202       854.20       1.40807
23.5029378672       0.306713078877       867.13       1.40776
24.003000375       0.319118619966       882.29       45.82555
24.5030628829       0.331795521982       909.24       4.44125
25.0031253907       0.344798860845       914.68       11.12155
25.5031878985       0.358188497856       937.54       11.20372
26.0032504063       0.372027611739       939.91       5.79718
26.5033129141       0.386381022457       946.48       11.09728
27.0033754219       0.401313346304       963.91       16.83915
27.5034379297       0.416887029683       975.69       0.26189
28.0035004376       0.433160315623       988.62       2.32366
28.5035629454       0.450185202287       989.98       0.60603
29.0036254532       0.468005456025       1019.48       33.95517
29.503687961       0.486654742893       1027.76       5.74412
30.0037504688       0.50615494169       1048.43       19.96182
30.5038129766       0.526514698505       1051.69       2.37927
31.0038754844       0.547728277436       1059.60       46.26582
31.5039379922       0.569774754691       1071.85       1.85688
32.0040005001       0.59261759384       1076.12       15.66778
32.5040630079       0.616204628822       1102.66       9.19431
33.0041255157       0.640468468798       1119.91       62.31306
33.5041880235       0.66532732539       1127.58       15.83050
34.0042505313       0.690686248758       1152.35       5.39914
34.5043130391       0.716438744867       1161.07       12.39594
35.0043755469       0.74246873258       1168.85       1.17561
35.5044380548       0.768652786485       1178.42       0.55815
36.0045005626       0.794862600132       1208.06       9.02891
36.5045630704       0.820967594951       1222.00       8.10145
37.0046255782       0.84683759315       1234.39       46.85901
37.504688086       0.872345468505       1239.68       4.91658
38.0047505938       0.897369687534       1253.72       7.42697
38.5048131016       0.921796655188       1257.74       4.14620
39.0048756095       0.945522783965       1272.97       154.91571
39.5049381173       0.968456213184       1277.02       3.77263
40.0050006251       0.990518115873       1289.98       18.68851
40.5050631329       1.01164354401       1299.35       10.77536
41.0051256407       1.03178177834       1315.29       6.37951
41.5051881485       1.05089616615       1332.25       4.86477
42.0052506563       1.06896344867       1340.97       8.73076
42.5053131641       1.08597259828       1344.10       1.55665
43.005375672       1.10192320468       1354.02       4.82928
43.5054381798       1.11682346591       1356.32       15.09493
44.0055006876       1.13068785698       1360.56       6.23385
44.5055631954       1.1435345617       1372.61       8.46878
45.0056257032       1.15538276463       1375.95       39.43267
45.505688211       1.16624990727       1385.78       0.97367
46.0057507188       1.1761490164       1390.73       3.61572
46.5058132267       1.18508621233       1400.14       3.22678
47.0058757345       1.19305850041       1413.56       0.54309
47.5059382423       1.20005194088       1425.37       15.79728
48.0060007501       1.20604028029       1468.45       43.78395
48.5060632579       1.21098411212       1477.68       2.04936
49.0061257657       1.21483061594       1492.94       3.67860
49.5061882735       1.21751390423       1493.93       7.06440
50.0062507813       1.2189559839       1500.28       12.45281
50.5063132892       1.219068317       1502.58       5.55528
51.006375797       1.21775394302       1504.82       7.84399
51.5064383048       1.21491010387       1509.71       47.56423
52.0065008126       1.2104312936       1513.95       1.81945
52.5065633204       1.20421263827       1544.67       70.67394
53.0066258282       1.19615349841       1606.92       4.96284
53.506688336       1.18616117715       1622.90       21.03855
54.0067508439       1.17415461233       1662.10       96.38790
54.5068133517       1.16006793005       2208.49       20.75924
55.0068758595       1.14385374124       3010.13       20.98133
55.5069383673       1.12548607108       3013.88       32.78123
56.0070008751       1.10496282277       3016.83       12.97333
56.5070633829       1.08230769313       3030.64       25.17390
57.0071258907       1.05757147527       3041.15       17.13785
57.5071883985       1.03083270427       3043.94       61.06215
58.0072509064       1.00219762284       3060.10       3.19627
58.5073134142       0.971799466034       3062.20       69.69048
59.007375922       0.939797085302       3062.95       16.10409
59.5074384298       0.906372952261       3072.59       24.23013
60.0075009376       0.871730600582       3077.10       29.51229
60.5075634454       0.836091579973       3086.48       62.85203
61.0076259532       0.79969200859       3125.98       9.31000
61.5076884611       0.762778819272       3134.87       25.37490
62.0077509689       0.72560580045       3138.61       22.64961
62.5078134767       0.688429534468       3159.76       1.76817
63.0078759845       0.651505334501       3168.31       17.76474
63.5079384923       0.615083276482       3187.31       1.35745
64.0080010001       0.579404414928       3203.45       6.74474
64.5080635079       0.544697261664       3270.94       9.88102
65.0081260158       0.511174594793       3471.83       67.17340
65.5081885236       0.479030652354       3798.72       31.92107
66.0082510314       0.4484387516
66.5083135392       0.4195493612
67.008376047       0.392488640457
67.5084385548       0.367357447287
68.0085010626       0.344230805601
68.5085635704       0.32315781303
69.0086260783       0.304161961998
69.5086885861       0.287241840866
70.0087510939       0.272372177312
70.5088136017       0.259505183248
71.0088761095       0.248572159102
71.5089386173       0.239485315146
72.0090011251       0.232139768425
72.509063633       0.226415675486
73.0091261408       0.222180463296
73.5091886486       0.219291123257
74.0092511564       0.217596535785
74.5093136642       0.216939795511
75.009376172       0.217160509486
75.5094386798       0.218097042922
76.0095011876       0.219588688835
76.5095636955       0.221477739548
77.0096262033       0.223611439408
77.5096887111       0.225843799353
78.0097512189       0.228037255191
78.5098137267       0.230064152818
79.0098762345       0.231808045084
79.5099387423       0.233164786855
80.0100012502       0.234043416934
80.510063758       0.234366818029
81.0101262658       0.234072148936
81.5101887736       0.233111046347
82.0102512814       0.23144959742
82.5103137892       0.22906808805
83.010376297       0.225960535869
83.5104388049       0.222134020987
84.0105013127       0.217607831415
84.5105638205       0.212412443707
85.0106263283       0.206588362582
85.5106888361       0.200184845956
86.0107513439       0.193258543822
86.5108138517       0.185872080713
87.0108763595       0.178092611963
87.5109388674       0.169990383714
88.0110013752       0.161637325462
88.511063883       0.153105702117
89.0111263908       0.14446684999
89.5111888986       0.135790018016
90.0112514064       0.127141331892
90.5113139142       0.118582894955
91.0113764221       0.110172035432
91.5114389299       0.101960705595
92.0115014377       0.093995034247
92.5115639455       0.0863150301098
93.0116264533       0.0789544301796
93.5116889611       0.0719406839873
94.0117514689       0.0652950621164
94.5118139767       0.0590328752638
95.0118764846       0.053163788647
95.5119389924       0.0476922156495
96.0120015002       0.042617774245
96.512064008       0.0379357899073
97.0121265158       0.0336378293524
97.5121890236       0.0297122504989
98.0122515314       0.0261447554088
98.5123140393       0.022918934602
99.0123765471       0.020016792942
99.5124390549       0.0174192492065
100.012501563       0.0151066033912
100.512564071       0.0130589677034
101.012626578       0.0112566590164
101.512689086       0.00968055223097
102.012751594       0.00831239548935
102.512814102       0.00713508948074
103.01287661       0.00613293414647
103.512939117       0.00529184692351
104.013001625       0.0045995572551
104.513064133       0.00404578244545
105.013126641       0.00362239004873
105.513189149       0.00332355186866
106.013251656       0.00314589431742
106.513314164       0.0030886493528
107.013376672       0.00315380949772
107.51343918       0.00334628956201
108.013501688       0.00367409665029
108.513564196       0.00414850887387
109.013626703       0.00478426190922
109.513689211       0.00559974118824
110.013751719       0.00661717609595
110.513814227       0.00786283112411
111.013876735       0.00936718752536
111.513939242       0.0111651076783
112.01400175       0.0132959731619
112.514064258       0.0158037865041
113.014126766       0.0187372257812
113.514189274       0.0221496407582
114.014251781       0.0260989791517
114.514314289       0.0306476319195
115.014376797       0.0358621873011
115.514439305       0.0418130846876
116.014501813       0.0485741613319
116.514564321       0.0562220874266
117.014626828       0.0648356881725
117.514689336       0.0744951550954
118.014751844       0.0852811529809
118.514814352       0.09727383328
119.01487686       0.110551769563
119.514939367       0.125190835396
120.015001875       0.141263049696
120.515064383       0.158835418924
121.015126891       0.177968809249
121.515189399       0.198716884678
122.015251906       0.221125148973
122.515314414       0.245230129648
123.015376922       0.2710587413
123.51543943       0.298627862745
124.015501938       0.327944157901
124.515564446       0.359004163944
125.015626953       0.391794662049
125.515689461       0.426293336176
126.015751969       0.462469714055
126.515814477       0.500286372123
127.015876985       0.539700373098
127.515939492       0.580664891614
128.016002       0.62313097052
128.516064508       0.667049338628
129.016127016       0.71237221058
129.516189524       0.759054981712
130.016252032       0.807057725936
130.516314539       0.856346403277
131.016377047       0.906893686216
131.516439555       0.958679320719
132.016502063       1.01168994887
132.516564571       1.06591833534
133.016627078       1.12136195924
133.516689586       1.17802095579
134.016752094       1.23589541807
134.516814602       1.29498209664
135.01687711       1.35527056388
135.516939617       1.41673893829
136.017002125       1.47934929117
136.517064633       1.54304288282
137.017127141       1.60773539569
137.517189649       1.67331234773
138.017252157       1.7396248784
138.517314664       1.80648610248
139.017377172       1.87366822172
139.51743968       1.94090057196
140.017502188       2.00786876269
140.517564696       2.07421503885
141.017627203       2.13953996014
141.517689711       2.20340545392
142.017752219       2.26533925383
142.517814727       2.32484069008
143.017877235       2.38138775038
143.517939742       2.4344452844
144.01800225       2.48347418163
144.518064758       2.52794131419
145.018127266       2.56733000406
145.518189774       2.60115075
146.018252282       2.62895193429
146.518314789       2.65033022348
147.018377297       2.66494038183
147.518439805       2.67250423019
148.018502313       2.67281850696
148.518564821       2.66576141951
149.018627328       2.65129771416
149.518689836       2.62948213758
150.018752344       2.60046121126
150.518814852       2.56447329132
151.01887736       2.52184693625
151.518939867       2.47299765316
152.019002375       2.41842313699
152.519064883       2.35869715526
153.019127391       2.2944622615
153.519189899       2.22642154328
154.019252407       2.15532962388
154.519314914       2.0819831415
155.019377422       2.007210925
155.51943993       1.93186407235
156.019502438       1.85680611789
156.519564946       1.78290344798
157.019627453       1.71101609427
157.519689961       1.64198900012
158.019752469       1.57664382187
158.519814977       1.51577129295
159.019877485       1.46012414899
159.519939992       1.41041058546
160.0200025       1.3672881992
160.520065008       1.33135835145
161.020127516       1.30316088357
161.520190024       1.28316911792
162.020252532       1.27178508507
162.520315039       1.26933493447
163.020377547       1.27606450716
163.520440055       1.2921350761
164.020502563       1.31761928917
164.520565071       1.35249738188
165.020627578       1.39665375737
165.520690086       1.4498740607
166.020752594       1.51184289885
166.520815102       1.58214237697
167.02087761       1.66025163296
167.520940118       1.74554755524
168.021002625       1.83730686233
168.521065133       1.93470970619
169.021127641       2.03684493516
169.521190149       2.14271711633
170.021252657       2.25125537323
170.521315164       2.36132404318
171.021377672       2.47173510195
171.52144018       2.58126224347
172.021502688       2.68865644147
172.521565196       2.79266276032
173.021627703       2.89203812743
173.521690211       2.98556973031
174.021752719       3.07209366174
174.521815227       3.15051340677
175.021877735       3.21981774834
175.521940243       3.27909766481
176.02200275       3.32756180246
176.522065258       3.36455013093
177.022127766       3.38954542677
177.522190274       3.40218228068
178.022252782       3.40225338472
178.522315289       3.38971292507
179.022377797       3.36467698191
179.522440305       3.32742091694
180.022502813       3.27837380911
180.522565321       3.21811007707
181.022627828       3.14733849969
181.522690336       3.06688891185
182.022752844       2.97769690897
182.522815352       2.88078693859
183.02287786       2.77725418997
183.522940368       2.66824571211
184.023002875       2.55494119626
184.523065383       2.43853385216
185.023127891       2.32021178771
185.523190399       2.20114027173
186.023252907       2.08244521957
186.523315414       1.96519819465
187.023377922       1.85040316655
187.52344043       1.73898521061
188.023502938       1.63178127752
188.523565446       1.52953310543
189.023627953       1.43288229402
189.523690461       1.34236751076
190.023752969       1.25842375574
190.523815477       1.18138357384
191.023877985       1.11148007156
191.523940493       1.04885157133
192.024003       0.99354771799
192.524065508       0.94553683992
193.024128016       0.904714360393
193.524190524       0.870912052439
194.024253032       0.843907931577
194.524315539       0.823436584679
195.024378047       0.809199738826
195.524440555       0.800876880703
196.024503063       0.798135744181
196.524565571       0.800642490856
197.024628079       0.808071415273
197.524690586       0.820114013285
198.024753094       0.836487258795
198.524815602       0.856940941245
199.02487811       0.881263924283
199.524940618       0.909289195596
200.025003125       0.940897589625
200.525065633       0.976020079416
201.025128141       1.01463855178
201.525190649       1.05678500169
202.025253157       1.10253910764
202.525315664       1.15202417973
203.025378172       1.2054015062
203.52544068       1.26286316145
204.025503188       1.32462337887
204.525565696       1.39090863367
205.025628204       1.46194662339
205.525690711       1.53795437492
206.025753219       1.61912574635
206.525815727       1.70561862595
207.025878235       1.79754216004
207.525940743       1.89494436212
208.02600325       1.9978004683
208.526065758       2.10600240583
209.026128266       2.21934973231
209.526190774       2.33754238227
210.026253282       2.46017552484
210.526315789       2.58673679215
211.026378297       2.71660608261
211.526440805       2.84905807923
212.026503313       2.98326755057
212.526565821       3.11831742485
213.026628329       3.25320954665
213.526690836       3.38687794547
214.026753344       3.51820436683
214.526815852       3.64603574447
215.02687836       3.76920322788
215.526940868       3.88654232613
216.027003375       3.99691368912
216.527065883       4.09922402181
217.027128391       4.19244661807
217.527190899       4.27564100792
218.027253407       4.34797123595
218.527315914       4.40872232799
219.027378422       4.45731455688
219.52744093       4.49331518408
220.027503438       4.51644742906
220.527565946       4.52659650065
221.027628454       4.52381260977
221.527690961       4.50831096854
222.027753469       4.48046886273
222.527815977       4.44081996031
223.027878485       4.39004608532
223.527940993       4.32896674129
224.0280035       4.25852670984
224.528066008       4.17978207783
225.028128516       4.09388505849
225.528191024       4.00206797055
226.028253532       3.90562672379
226.52831604       3.80590413263
227.028378547       3.70427334277
227.528441055       3.60212161231
228.028503563       3.50083464117
228.528566071       3.40178159373
229.028628579       3.30630091307
229.528691086       3.21568698211
230.028753594       3.13117765245
230.528816102       3.05394263465
231.02887861       2.98507272801
231.528941118       2.92556986274
232.029003625       2.8763379338
232.529066133       2.83817442197
233.029128641       2.81176282396
233.529191149       2.79766594603
234.029253657       2.7963201537
234.529316165       2.80803070998
