#  x                 y             frequency           rot. str.
0.0      -0.195105076572      57.97      -13.01
0.500062507813      -0.199085928331      232.14      6.68
1.00012501563      -0.20317315289      274.74      19.32
1.50018752344      -0.207370439934      279.39      26.72
2.00025003125      -0.211681638381      354.04      12.21
2.50031253907      -0.216110764626      409.50      14.48
3.00037504688      -0.22066201128      530.19      -3.85
3.50043755469      -0.225339756447      568.53      -39.53
4.00050006251      -0.230148573569      738.46      45.16
4.50056257032      -0.235093241875      803.95      -4.58
5.00062507813      -0.24017875749      844.93      -132.94
5.50068758595      -0.245410345238      878.71      68.35
6.00075009376      -0.250793471199      938.89      52.23
6.50081260158      -0.256333856063      1020.12      -6.57
7.00087510939      -0.262037489352      1080.45      -45.69
7.5009376172      -0.267910644564      1146.05      13.59
8.00100012502      -0.273959895317      1211.76      -34.49
8.50106263283      -0.280192132556      1233.26      18.12
9.00112514064      -0.286614582911      1314.33      -7.46
9.50118764846      -0.293234828298      1390.31      -6.08
10.0012501563      -0.300060826843      1409.18      1.44
10.5013126641      -0.307100935255      1413.63      30.14
11.0013751719      -0.314363932732      1490.99      1.53
11.5014376797      -0.321859046552      1500.23      -9.53
12.0015001875      -0.329595979454      1658.39      -17.89
12.5015626953      -0.337584938977      1836.95      -24.50
13.0016252032      -0.345836668901      3032.01      -1.24
13.501687711      -0.354362482963      3040.57      5.65
14.0017502188      -0.363174301042      3095.56      -5.70
14.5018127266      -0.372284688012      3131.84      3.26
15.0018752344      -0.381706895494      3444.69      -4.04
15.5019377422      -0.391454906735      3498.36      4.77
16.00200025      -0.401543484913      3582.53      -8.08
16.5020627578       -0.411988225123
17.0021252657       -0.422805610402
17.5021877735       -0.434013072121
18.0022502813       -0.445629055142
18.5023127891       -0.45767308816
19.0023752969       -0.470165859715
19.5024378047       -0.483129300355
20.0025003125       -0.496586671554
20.5025628204       -0.510562661981
21.0026253282       -0.525083491825
21.502687836       -0.540177025923
22.0027503438       -0.555872896541
22.5028128516       -0.572202636725
23.0028753594       -0.589199825248
23.5029378672       -0.606900244283
24.003000375       -0.625342051071
24.5030628829       -0.644565964945
25.0031253907       -0.664615471281
25.5031878985       -0.685537044053
26.0032504063       -0.707380388919
26.5033129141       -0.73019870891
27.0033754219       -0.754048995085
27.5034379297       -0.778992344725
28.0035004376       -0.805094309972
28.5035629454       -0.83242528011
29.0036254532       -0.861060901041
29.503687961       -0.891082535954
30.0037504688       -0.922577771548
30.5038129766       -0.955640974742
31.0038754844       -0.990373905279
31.5039379922       -1.02688639027
32.0040005001       -1.06529706737
32.5040630079       -1.10573420391
33.0041255157       -1.14833660031
33.5041880235       -1.19325458655
34.0042505313       -1.24065112179
34.5043130391       -1.29070300785
35.0043755469       -1.34360222828
35.5044380548       -1.39955742586
36.0045005626       -1.45879553206
36.5045630704       -1.52156356298
37.0046255782       -1.58813059692
37.504688086       -1.65878994892
38.0047505938       -1.7338615579
38.5048131016       -1.81369460075
39.0048756095       -1.89867034659
39.5049381173       -1.9892052608
40.0050006251       -2.08575436395
40.5050631329       -2.18881484273
41.0051256407       -2.29892989908
41.5051881485       -2.41669280738
42.0052506563       -2.54275112719
42.5053131641       -2.67781098726
43.005375672       -2.82264131354
43.5054381798       -2.97807781551
44.0055006876       -3.14502646644
44.5055631954       -3.32446610874
45.0056257032       -3.51744967832
45.505688211       -3.72510336268
46.0057507188       -3.94862277776
46.5058132267       -4.18926495766
47.0058757345       -4.44833459082
47.5059382423       -4.72716250005
48.0060007501       -5.0270738549
48.5060632579       -5.34934304151
49.0061257657       -5.69513153992
49.5061882735       -6.0654046612
50.0062507813       -6.46082272416
50.5063132892       -6.88160244607
51.006375797       -7.32734533528
51.5064383048       -7.79683218613
52.0065008126       -8.28778696787
52.5065633204       -8.79662006155
53.0066258282       -9.31817031777
53.506688336       -9.84547760551
54.0067508439       -10.3696311232
54.5068133517       -10.8797508236
55.0068758595       -11.3631649841
55.5069383673       -11.8058398806
56.0070008751       -12.1930916409
56.5070633829       -12.5105632149
57.0071258907       -12.745385982
57.5071883985       -12.8873805577
58.0072509064       -12.9301070913
58.5073134142       -12.8715735914
59.007375922       -12.7144617385
59.5074384298       -12.4658236159
60.0075009376       -12.1363117098
60.5075634454       -11.7390935097
61.0076259532       -11.2886452034
61.5076884611       -10.799609819
62.0077509689       -10.2858563028
62.5078134767       -9.75980999717
63.0078759845       -9.23206330188
63.5079384923       -8.7112312318
64.0080010001       -8.20399379272
64.5080635079       -7.71526234402
65.0081260158       -7.24841413083
65.5081885236       -6.80555173694
66.0082510314       -6.38775774161
66.5083135392       -5.99532670892
67.008376047       -5.62796572452
67.5084385548       -5.28496095541
68.0085010626       -4.96531158129
68.5085635704       -4.66783452997
69.0086260783       -4.39124431317
69.5086885861       -4.13421236506
70.0087510939       -3.89540996689
70.5088136017       -3.67353832399
71.0088761095       -3.46734878405
71.5089386173       -3.27565562832
72.0090011251       -3.09734336824
72.509063633       -2.93137005586
73.0091261408       -2.77676776606
73.5091886486       -2.63264112791
74.0092511564       -2.49816456058
74.5093136642       -2.37257869718
75.009376172       -2.25518634786
75.5094386798       -2.14534825323
76.0095011876       -2.04247880411
76.5095636955       -1.94604184752
77.0096262033       -1.85554665777
77.5096887111       -1.77054412131
78.0097512189       -1.69062316282
78.5098137267       -1.61540742429
79.0098762345       -1.54455219862
79.5099387423       -1.47774161186
80.0100012502       -1.41468604381
80.510063758       -1.35511977345
81.0101262658       -1.29879883478
81.5101887736       -1.24549906723
82.0102512814       -1.19501434547
82.5103137892       -1.14715497346
83.010376297       -1.10174622843
83.5104388049       -1.05862704127
84.0105013127       -1.01764880071
84.5105638205       -0.978674269762
85.0106263283       -0.941576603659
85.5106888361       -0.906238459555
86.0107513439       -0.872551189181
86.5108138517       -0.840414106337
87.0108763595       -0.809733821967
87.5109388674       -0.780423640231
88.0110013752       -0.752403009636
88.511063883       -0.725597023874
89.0111263908       -0.699935967551
89.5111888986       -0.67535490247
90.0112514064       -0.651793290562
90.5113139142       -0.629194649965
91.0113764221       -0.607506241085
91.5114389299       -0.586678779805
92.0115014377       -0.566666175284
92.5115639455       -0.547425290043
93.0116264533       -0.528915720271
93.5116889611       -0.51109959449
94.0117514689       -0.493941388882
94.5118139767       -0.477407757778
95.0118764846       -0.461467377936
95.5119389924       -0.446090805366
96.0120015002       -0.431250343596
96.512064008       -0.416919922367
97.0121265158       -0.403074985838
97.5121890236       -0.389692389496
98.0122515314       -0.376750304988
98.5123140393       -0.364228132234
99.0123765471       -0.352106418185
99.5124390549       -0.340366781664
100.012501563       -0.328991843801
100.512564071       -0.317965163586
101.012626578       -0.30727117812
101.512689086       -0.296895147197
102.012751594       -0.286823101844
102.512814102       -0.277041796532
103.01287661       -0.267538664739
103.512939117       -0.25830177762
104.013001625       -0.249319805535
104.513064133       -0.240581982213
105.013126641       -0.232078071356
105.513189149       -0.223798335489
106.013251656       -0.215733506891
106.513314164       -0.207874760453
107.013376672       -0.200213688314
107.51343918       -0.192742276156
108.013501688       -0.185452881017
108.513564196       -0.178338210532
109.013626703       -0.171391303492
109.513689211       -0.164605511615
110.013751719       -0.157974482469
110.513814227       -0.151492143439
111.013876735       -0.145152686684
111.513939242       -0.138950555008
112.01400175       -0.132880428579
112.514064258       -0.126937212447
113.014126766       -0.121116024802
113.514189274       -0.115412185922
114.014251781       -0.10982120776
114.514314289       -0.104338784146
115.014376797       -0.0989607815374
115.514439305       -0.0936832303069
116.014501813       -0.088502316513
116.514564321       -0.0834143741372
117.014626828       -0.0784158777486
117.514689336       -0.0735034355736
118.014751844       -0.0686737829429
118.514814352       -0.063923776093
119.01487686       -0.0592503863007
119.514939367       -0.0546506943287
120.015001875       -0.0501218851645
120.515064383       -0.0456612430344
121.015126891       -0.0412661466746
121.515189399       -0.0369340648469
122.015251906       -0.0326625520804
122.515314414       -0.0284492446297
123.015376922       -0.0242918566336
123.51543943       -0.0201881764643
124.015501938       -0.0161360632559
124.515564446       -0.0121334436005
125.015626953       -0.00817830840336
125.515689461       -0.00426870988749
126.015751969       -0.000402758739338
126.515814477       0.00342137861306
127.015876985       0.00720548259645
127.515939492       0.0109512829707
128.016002       0.0146604611956
128.516064508       0.018334652693
129.016127016       0.0219754490086
129.516189524       0.025584399882
130.016252032       0.0291630152264
130.516314539       0.0327127670262
131.016377047       0.0362350911558
131.516439555       0.0397313891233
132.016502063       0.0432030297453
132.516564571       0.0466513507544
133.016627078       0.050077660345
133.516689586       0.0534832386601
134.016752094       0.0568693392224
134.516814602       0.060237190313
135.01687711       0.0635879963012
135.516939617       0.0669229389274
136.017002125       0.0702431785421
136.517064633       0.0735498553045
137.017127141       0.0768440903416
137.517189649       0.0801269868713
138.017252157       0.0833996312915
138.517314664       0.0866630942371
139.017377172       0.0899184316073
139.51743968       0.0931666855647
140.017502188       0.0964088855083
140.517564696       0.0996460490229
141.017627203       0.102879182805
141.517689711       0.106109283571
142.017752219       0.109337338938
142.517814727       0.112564328299
143.017877235       0.115791223674
143.517939742       0.119018990546
144.01800225       0.122248588688
144.518064758       0.125480972977
145.018127266       0.128717094196
145.518189774       0.131957899827
146.018252282       0.135204334842
146.518314789       0.138457342474
147.018377297       0.141717865004
147.518439805       0.144986844519
148.018502313       0.14826522369
148.518564821       0.151553946535
149.018627328       0.154853959184
149.518689836       0.15816621065
150.018752344       0.1614916536
150.518814852       0.164831245124
151.01887736       0.16818594752
151.518939867       0.171556729072
152.019002375       0.17494456485
152.519064883       0.178350437503
153.019127391       0.181775338079
153.519189899       0.185220266839
154.019252407       0.188686234098
154.519314914       0.192174261075
155.019377422       0.195685380754
155.51943993       0.199220638771
156.019502438       0.202781094316
156.519564946       0.206367821049
157.019627453       0.209981908053
157.519689961       0.213624460795
158.019752469       0.217296602123
158.519814977       0.220999473284
159.019877485       0.224734234981
159.519939992       0.228502068447
160.0200025       0.232304176568
160.520065008       0.23614178503
161.020127516       0.24001614351
161.520190024       0.24392852691
162.020252532       0.247880236626
162.520315039       0.251872601872
163.020377547       0.255906981045
163.520440055       0.259984763152
164.020502563       0.264107369279
164.520565071       0.268276254133
165.020627578       0.272492907631
165.520690086       0.27675885657
166.020752594       0.281075666352
166.520815102       0.2854449428
167.02087761       0.289868334032
167.520940118       0.294347532441
168.021002625       0.298884276742
168.521065133       0.303480354132
169.021127641       0.308137602533
169.521190149       0.312857912955
170.021252657       0.317643231959
170.521315164       0.322495564248
171.021377672       0.327416975383
171.52144018       0.332409594626
172.021502688       0.337475617938
172.521565196       0.342617311119
173.021627703       0.347837013117
173.521690211       0.353137139499
174.021752719       0.358520186116
174.521815227       0.363988732958
175.021877735       0.369545448211
175.521940243       0.375193092547
176.02200275       0.380934523636
176.522065258       0.38677270092
177.022127766       0.392710690649
177.522190274       0.398751671204
178.022252782       0.404898938728
178.522315289       0.411155913081
179.022377797       0.417526144143
179.522440305       0.424013318494
180.022502813       0.430621266489
180.522565321       0.437353969766
181.022627828       0.444215569205
181.522690336       0.451210373387
182.022752844       0.458342867569
182.522815352       0.465617723238
183.02287786       0.473039808258
183.522940368       0.480614197679
184.023002875       0.488346185245
184.523065383       0.496241295656
185.023127891       0.504305297639
185.523190399       0.512544217903
186.023252907       0.520964356026
186.523315414       0.52957230037
187.023377922       0.538374945086
187.52344043       0.547379508309
188.023502938       0.556593551637
188.523565446       0.566025000989
189.023627953       0.575682168974
189.523690461       0.585573778874
190.023752969       0.595708990404
190.523815477       0.606097427365
191.023877985       0.616749207389
191.523940493       0.627674973923
192.024003       0.638885930676
192.524065508       0.650393878722
193.024128016       0.662211256514
193.524190524       0.674351183049
194.024253032       0.686827504495
194.524315539       0.699654844576
195.024378047       0.712848659065
195.524440555       0.726425294779
196.024503063       0.740402053484
196.524565571       0.754797261182
197.024628079       0.769630343303
197.524690586       0.784921906357
198.024753094       0.800693826683
198.524815602       0.816969346999
199.02487811       0.833773181512
199.524940618       0.851131630459
200.025003125       0.869072705015
200.525065633       0.88762626364
201.025128141       0.906824161011
201.525190649       0.926700410868
202.025253157       0.947291364189
202.525315664       0.968635904324
203.025378172       0.990775660854
203.52544068       1.01375524417
204.025503188       1.03762250294
204.525565696       1.06242880702
205.025628204       1.0882293583
205.525690711       1.11508353284
206.025753219       1.14305525725
206.525815727       1.17221342333
207.025878235       1.20263234491
207.525940743       1.23439226141
208.02600325       1.26757989308
208.526065758       1.30228905336
209.026128266       1.33862132428
209.526190774       1.37668680132
210.026253282       1.41660491449
210.526315789       1.45850533321
211.026378297       1.50252896247
211.526440805       1.54882903829
212.026503313       1.5975723305
212.526565821       1.64894046041
213.026628329       1.70313134056
213.526690836       1.76036074205
214.026753344       1.82086399288
214.526815852       1.8848978074
215.02687836       1.95274224156
215.526940868       2.0247027614
216.027003375       2.10111240167
216.527065883       2.18233397678
217.027128391       2.26876228594
217.527190899       2.36082622725
218.027253407       2.45899069807
218.527315914       2.56375811002
219.027378422       2.67566928157
219.52744093       2.79530338643
220.027503438       2.92327652576
220.527565946       3.06023835321
221.027628454       3.20686600733
221.527690961       3.36385439364
222.027753469       3.53190160809
222.527815977       3.71168801078
223.027878485       3.90384716205
223.527940993       4.10892655933
224.0280035       4.3273359284
224.528066008       4.55928083542
225.028128516       4.80467975941
225.528191024       5.06306372457
226.028253532       5.33345942589
226.52831604       5.61425979705
227.028378547       5.90309041488
227.528441055       6.19668602635
228.028503563       6.49079836773
228.528566071       6.78016309519
229.028628579       7.05855785425
229.528691086       7.31898218133
230.028753594       7.55397975869
230.528816102       7.75610251574
231.02887861       7.91848542804
231.528941118       8.03546667621
232.029003625       8.10316066359
232.529066133       8.1198830954
233.029128641       8.08634546799
233.529191149       8.00557916693
234.029253657       7.88260488896
234.529316165       7.72391356433
235.029378672       7.53685493647
235.52944118       7.32903293023
236.029503688       7.10778680425
236.529566196       6.87980452322
237.029628704       6.65088151485
237.529691211       6.42581226307
238.029753719       6.20838730003
238.529816227       6.00146327611
239.029878735       5.80707595334
239.529941243       5.62657186721
240.03000375       5.46074138839
240.530066258       5.30994234336
241.030128766       5.17420845988
241.530191274       5.05334053235
242.030253782       4.94698052367
242.53031629       4.85467013035
243.030378797       4.7758959401
243.530441305       4.71012346047
244.030503813       4.65682218402
244.530566321       4.615483612
245.030628829       4.58563386616
245.530691336       4.56684222722
246.030753844       4.55872667289
246.530816352       4.56095725993
247.03087886       4.57325800464
247.530941368       4.59540776342
248.031003875       4.62724049351
248.531066383       4.66864518053
249.031128891       4.71956564712
249.531191399       4.78000040313
250.031253907       4.85000265749
250.531316415       4.92968058238
251.031378922       5.01919789963
251.53144143       5.11877484436
252.031503938       5.22868955137
252.531566446       5.3492799033
253.031628954       5.48094587654
253.531691461       5.6241524186
254.031753969       5.77943289068
254.531816477       5.94739310913
255.031878985       6.12871601955
255.531941493       6.32416703719
256.032004001       6.53460008527
256.532066508       6.76096435948
257.032129016       7.00431183962
257.532191524       7.26580555792
258.032254032       7.54672861555
258.53231654       7.84849391212
259.032379047       8.1726545138
259.532441555       8.52091453109
260.032504063       8.89514030056
260.532566571       9.29737156016
261.032629079       9.72983216582
261.532691586       10.1949397074
262.032754094       10.6953131308
262.532816602       11.2337771471
263.03287911       11.8133617853
263.532941618       12.4372949153
264.033004126       13.1089849039
264.533066633       13.8319897665
265.033129141       14.6099682493
265.533191649       15.4466072465
266.033254157       16.3455189122
266.533316665       17.3100999275
267.033379172       18.343344892
267.53344168       19.447606147
268.033504188       20.624294111
268.533566696       21.8735161861
269.033629204       23.1936593791
269.533691711       24.5809327452
270.033754219       26.0289008864
270.533816727       27.5280581301
271.033879235       29.0655118194
271.533941743       30.6248568756
272.034004251       32.1863244229
272.534066758       33.7272658845
273.034129266       35.2229846514
273.534191774       36.6478527862
274.034254282       37.9765661587
274.53431679       39.1853271176
