#  x                 y             frequency           rot. str.
0.0      -0.644961434279      14.15      -3.35
0.500062507813      -0.688563202002      27.22      0.30
1.00012501563      -0.735510656083      45.56      -0.78
1.50018752344      -0.786084521724      64.37      -5.87
2.00025003125      -0.840583678458      72.67      12.28
2.50031253907      -0.899323519953      102.33      2.23
3.00037504688      -0.962632991911      121.48      -1.61
3.50043755469      -1.03084983616      144.12      0.36
4.00050006251      -1.10431344463      156.18      1.16
4.50056257032      -1.18335458603      160.07      0.91
5.00062507813      -1.26828111939      190.61      3.44
5.50068758595      -1.35935866921      210.75      -0.43
6.00075009376      -1.45678513976      235.46      9.46
6.50081260158      -1.56065794243      241.45      5.40
7.00087510939      -1.67093298008      247.36      -1.46
7.5009376172      -1.78737488768      264.26      97.79
8.00100012502      -1.90949890941      291.50      -22.86
8.50106263283      -2.03650625641      313.39      -1.41
9.00112514064      -2.16721696244      338.22      8.53
9.50118764846      -2.30000715964      353.07      -0.39
10.0012501563      -2.43276112766      377.57      4.22
10.5013126641      -2.5628518447      389.23      -10.39
11.0013751719      -2.68716602062      420.60      -1.29
11.5014376797      -2.80218918978      428.54      6.79
12.0015001875      -2.90416171962      448.41      -10.41
12.5015626953      -2.98930645702      465.63      7.21
13.0016252032      -3.05411365533      525.27      -0.66
13.501687711      -3.09565165361      531.90      13.96
14.0017502188      -3.11185768541      548.29      6.74
14.5018127266      -3.10175815784      559.28      11.68
15.0018752344      -3.06557582059      578.36      -23.70
15.5019377422      -3.00470196871      582.45      27.16
16.00200025      -2.92153949169      607.52      2.43
16.5020627578      -2.8192483909      615.24      -14.19
17.0021252657      -2.7014413785      641.69      6.67
17.5021877735      -2.57187967563      652.14      0.98
18.0022502813      -2.43420974621      655.08      9.30
18.5023127891      -2.29176563886      662.98      -1.29
19.0023752969      -2.14744478696      703.45      -8.75
19.5024378047      -2.00365185449      728.72      2.83
20.0025003125      -1.86229732576      775.25      3.49
20.5025628204      -1.72483472133      780.12      -16.72
21.0026253282      -1.59232113226      799.06      18.92
21.502687836      -1.46548851167      813.60      31.03
22.0027503438      -1.34481647544      833.67      -72.18
22.5028128516      -1.23060037389      843.07      26.19
23.0028753594      -1.1230107094      852.09      1.27
23.5029378672      -1.0221415408      861.55      -61.22
24.003000375      -0.928046500981      876.54      -15.87
24.5030628829      -0.840761737833      888.69      14.83
25.0031253907      -0.760315774622      894.68      -5.78
25.5031878985      -0.686727213369      918.09      0.92
26.0032504063      -0.619992455009      936.06      -13.51
26.5033129141      -0.560067026317      944.03      -5.44
27.0033754219      -0.506845289783      973.47      3.35
27.5034379297      -0.460143755652      981.70      -6.40
28.0035004376      -0.419692526025      982.23      0.30
28.5035629454      -0.385137562665      988.94      35.27
29.0036254532      -0.35605393636      1018.51      -43.36
29.503687961      -0.331967754859      1022.88      64.35
30.0037504688      -0.312382820778      1043.36      -54.64
30.5038129766      -0.296807629977      1046.41      -10.76
31.0038754844      -0.284778998691      1062.79      -4.53
31.5039379922      -0.275879965065      1073.01      6.30
32.0040005001      -0.269751108918      1082.10      26.02
32.5040630079      -0.266095655843      1112.44      -21.90
33.0041255157      -0.264679482937      1114.73      -12.88
33.5041880235      -0.26532742671      1131.83      8.07
34.0042505313      -0.267917227557      1147.21      11.66
34.5043130391      -0.272372179123      1169.35      0.31
35.0043755469      -0.278653211444      1171.90      0.07
35.5044380548      -0.286750806969      1181.03      38.44
36.0045005626      -0.296676870791      1198.73      7.52
36.5045630704      -0.308456464329      1213.85      51.84
37.0046255782      -0.3221191645      1229.94      -24.67
37.504688086      -0.337689723346      1237.38      8.66
38.0047505938      -0.355177675732      1255.03      -7.28
38.5048131016      -0.374565582623      1270.35      0.65
39.0048756095      -0.395795722908      1277.00      8.17
39.5049381173      -0.418755285214      1284.85      -4.61
40.0050006251      -0.443260494442      1293.38      -34.68
40.5050631329      -0.469040660308      1311.92      -28.34
41.0051256407      -0.495723853045      1328.55      -0.58
41.5051881485      -0.522826732414      1333.02      3.49
42.0052506563      -0.549751824879      1336.36      -14.14
42.5053131641      -0.575795989093      1342.44      4.64
43.005375672      -0.600173561492      1352.56      -16.16
43.5054381798      -0.622056353929      1355.29      19.74
44.0055006876      -0.640630079319      1362.44      2.14
44.5055631954      -0.655163111864      1369.42      4.12
45.0056257032      -0.665079521087      1376.63      -12.98
45.505688211      -0.67002533069      1380.19      -2.74
46.0057507188      -0.669916305401      1386.43      33.35
46.5058132267      -0.664958046696      1396.12      11.81
47.0058757345      -0.655634435728      1406.45      -0.34
47.5059382423      -0.642666979362      1445.89      -40.16
48.0060007501      -0.626953304313      1459.75      -25.87
48.5060632579      -0.609496190735      1480.76      -1.90
49.0061257657      -0.591334519055      1490.76      -3.38
49.5061882735      -0.573484895891      1495.15      -1.54
50.0062507813      -0.556898819985      1498.19      -3.70
50.5063132892      -0.542436387968      1501.68      36.80
51.006375797      -0.530854621317      1504.18      -32.05
51.5064383048      -0.522806835253      1507.37      6.32
52.0065008126      -0.518848927605      1512.21      -4.20
52.5065633204      -0.519448677726      1549.57      6.56
53.0066258282      -0.52499472539      1601.88      11.86
53.506688336      -0.535802547165      1640.65      -11.54
54.0067508439      -0.552115282356      1662.64      6.40
54.5068133517      -0.574097605645      2209.03      5.54
55.0068758595      -0.601820997177      3008.70      -2.77
55.5069383673      -0.635238769552      3021.66      -4.31
56.0070008751      -0.674149155396      3029.31      5.14
56.5070633829      -0.718144750264      3031.28      4.28
57.0071258907      -0.76654679225      3042.07      27.26
57.5071883985      -0.818323336343      3047.92      34.23
58.0072509064      -0.87199159302      3058.35      41.80
58.5073134142      -0.925506827975      3061.18      -23.87
59.007375922      -0.976143530976      3062.15      -17.32
59.5074384298      -1.02037920512      3065.32      -3.24
60.0075009376      -1.05379695141      3072.73      -20.85
60.5075634454      -1.07102933112      3086.57      11.87
61.0076259532      -1.06577129459      3101.29      18.12
61.5076884611      -1.03089191012      3111.54      1.31
62.0077509689      -0.958670288563      3133.78      2.20
62.5078134767      -0.841167940124      3137.76      -2.40
63.0078759845      -0.67072724046      3192.06      -1.19
63.5079384923      -0.440556797426      3194.23      -0.06
64.0080010001      -0.145336720545      3214.61      0.21
64.5080635079      0.218239647647      3218.79      -4.21
65.0081260158      0.651067071261      3469.94      -9.72
65.5081885236      1.15142541703      3795.60      -28.20
66.0082510314       1.71498154898
66.5083135392       2.33495998447
67.008376047       3.00241480037
67.5084385548       3.70652853501
68.0085010626       4.43488283146
68.5085635704       5.17368259257
69.0086260783       5.90795792181
69.5086885861       6.62180310658
70.0087510939       7.29872870539
70.5088136017       7.92219441112
71.0088761095       8.47635455592
71.5089386173       8.94698933677
72.0090011251       9.32252597991
72.509063633       9.59499580444
73.0091261408       9.76074847446
73.5091886486       9.82076921165
74.0092511564       9.78051710569
74.5093136642       9.64930222891
75.009376172       9.43931360507
75.5094386798       9.16446951762
76.0095011876       8.83927203591
76.5095636955       8.47781427434
77.0096262033       8.09303055108
77.5096887111       7.69621801327
78.0097512189       7.29680946604
78.5098137267       6.90234797344
79.0098762345       6.51860337838
79.5099387423       6.14977401062
80.0100012502       5.79872737988
80.510063758       5.46724655637
81.0101262658       5.15626101887
81.5101887736       4.86605046422
82.0102512814       4.59641704894
82.5103137892       4.34682605063
83.010376297       4.1165175273
83.5104388049       3.90459278409
84.0105013127       3.71007980723
84.5105638205       3.53198166106
85.0106263283       3.36931141485
85.5106888361       3.22111663466
86.0107513439       3.08649593539
86.5108138517       2.96460959055
87.0108763595       2.85468576316
87.5109388674       2.7560235559
88.0110013752       2.66799377796
88.511063883       2.59003808074
89.0111263908       2.52166691531
89.5111888986       2.46245659981
90.0112514064       2.41204564602
90.5113139142       2.37013037193
91.0113764221       2.3364597142
91.5114389299       2.31082904405
92.0115014377       2.29307267966
92.5115639455       2.28305467332
93.0116264533       2.28065733709
93.5116889611       2.28576686154
94.0117514689       2.29825529691
94.5118139767       2.31795813166
95.0118764846       2.34464676719
95.5119389924       2.37799541401
96.0120015002       2.41754241297
96.512064008       2.4626468167
97.0121265158       2.51244234648
97.5121890236       2.56579261552
98.0122515314       2.62125370348
98.5123140393       2.67705249032
99.0123765471       2.73109100945
99.5124390549       2.780987537
100.012501563       2.82416307549
100.512564071       2.8579763932
101.012626578       2.87990172897
101.512689086       2.88773199284
102.012751594       2.87977976724
102.512814102       2.85504261338
103.01287661       2.81330147083
103.512939117       2.75513214858
104.013001625       2.68182735916
104.513064133       2.59524502182
105.013126641       2.49761185793
105.513189149       2.39131604573
106.013251656       2.27871882057
106.513314164       2.1620052566
107.013376672       2.04308304121
107.51343918       1.92352821114
108.013501688       1.8045703404
108.513564196       1.68710677332
109.013626703       1.57173540908
109.513689211       1.45879715252
110.013751719       1.34842145033
110.513814227       1.24057064512
111.013876735       1.13508083589
111.513939242       1.03169840881
112.01400175       0.930112416384
112.514064258       0.82998361791
113.014126766       0.730971342865
113.514189274       0.632759476017
114.014251781       0.535082831132
114.514314289       0.437754987623
115.014376797       0.34069828559
115.514439305       0.243976058117
116.014501813       0.147826263687
116.514564321       0.0526944231006
117.014626828       -0.0407378118827
117.514689336       -0.131533870316
118.014751844       -0.218500208169
118.514814352       -0.300208685816
119.01487686       -0.375050233829
119.514939367       -0.441323493052
120.015001875       -0.497356306992
120.515064383       -0.541650114527
121.015126891       -0.57302925596
121.515189399       -0.590771717073
122.015251906       -0.594697597512
122.515314414       -0.585197868433
123.015376922       -0.563197600004
123.51543943       -0.530061320889
124.015501938       -0.487459202617
124.515564446       -0.437218130656
125.015626953       -0.38118061807
125.515689461       -0.321088485589
126.015751969       -0.258500064534
126.515814477       -0.194742039604
127.015876985       -0.130891584092
127.515939492       -0.0677816096797
128.016002       -0.00602135724423
128.516064508       0.0539745805756
129.016127016       0.111954159591
129.516189524       0.167796385408
130.016252032       0.22148262536
130.516314539       0.273071812124
131.016377047       0.322679840694
131.516439555       0.370462975653
132.016502063       0.416604821348
132.516564571       0.461306292798
133.016627078       0.504778002619
133.516689586       0.547234507261
134.016752094       0.58888990647
134.516814602       0.629954346257
135.01687711       0.670631028863
135.516939617       0.711113380405
136.017002125       0.751582069802
136.517064633       0.792201616923
137.017127141       0.833116383254
137.517189649       0.874445818207
138.017252157       0.91627895502
138.517314664       0.958668329945
139.017377172       1.001623751
139.51743968       1.04510666955
140.017502188       1.08902628455
140.517564696       1.13323886926
141.017627203       1.17755203326
141.517689711       1.22173555177
142.017752219       1.26553983112
142.517814727       1.30872192837
143.017877235       1.3510773731
143.517939742       1.39247418385
144.01800225       1.43288400034
144.518064758       1.47240480371
145.018127266       1.51127066863
145.518189774       1.54984628012
146.018252282       1.58860689544
146.518314789       1.62810708155
147.018377297       1.66894308887
147.518439805       1.71171379603
148.018502313       1.7569840076
148.518564821       1.80525210416
149.018627328       1.85692228781
149.518689836       1.91228041491
150.018752344       1.97147188247
150.518814852       2.03448024165
151.01887736       2.10110603987
151.518939867       2.1709466762
152.019002375       2.24337959433
152.519064883       2.31755266123
153.019127391       2.39238670754
153.519189899       2.46659543249
154.019252407       2.53872667497
154.519314914       2.60722609242
155.019377422       2.67051976361
155.51943993       2.72710711525
156.019502438       2.77565157904
156.519564946       2.81505541255
157.019627453       2.84450828671
157.519689961       2.86350600415
158.019752469       2.87184369545
158.519814977       2.86959376865
159.019877485       2.8570802258
159.519939992       2.83485730183
160.0200025       2.80369373512
160.520065008       2.76455771211
161.020127516       2.71859460674
161.520190024       2.66709115798
162.020252532       2.61142456481
162.520315039       2.55300060448
163.020377547       2.49318881344
163.520440055       2.43326372029
164.020502563       2.3743592922
164.520565071       2.31744036168
165.020627578       2.26329125898
165.520690086       2.21251919627
166.020752594       2.16556852598
166.520815102       2.12274171429
167.02087761       2.08422336615
167.520940118       2.05010450848
168.021002625       2.02040527412
168.521065133       1.99509494527
169.021127641       1.97410893627
169.521190149       1.95736271527
170.021252657       1.94476291508
170.521315164       1.93621600742
171.021377672       1.93163495357
171.52144018       1.93094423161
172.021502688       1.9340835993
172.521565196       1.94101089899
173.021627703       1.95170415608
173.521690211       1.9661631701
174.021752719       1.98441075063
174.521815227       2.00649370838
175.021877735       2.03248367459
175.521940243       2.06247778795
176.02200275       2.09659925535
176.522065258       2.1349977596
177.022127766       2.17784965019
177.522190274       2.22535781178
178.022252782       2.27775105395
178.522315289       2.33528280474
179.022377797       2.39822881422
179.522440305       2.46688348148
180.022502813       2.54155430666
180.522565321       2.62255383826
181.022627828       2.71018833906
181.522690336       2.80474224081
182.022752844       2.90645731781
182.522815352       3.01550541766
183.02287786       3.1319536012
183.522940368       3.2557207476
184.023002875       3.38652519368
184.523065383       3.52382394741
185.023127891       3.66674560277
185.523190399       3.81402141063
186.023252907       3.96392202779
186.523315414       4.11421102423
187.023377922       4.26212962189
187.52344043       4.40442920418
188.023502938       4.5374672611
188.523565446       4.65737693409
189.023627953       4.76030921696
189.523690461       4.84273090335
190.023752969       4.90174380128
190.523815477       4.93537709103
191.023877985       4.94280104516
191.523940493       4.92442037292
192.024003       4.88182802589
192.524065508       4.81762898509
193.024128016       4.7351691723
193.524190524       4.6382194111
194.024253032       4.53066521734
194.524315539       4.41624236652
195.024378047       4.29834126653
195.524440555       4.17988614495
196.024503063       4.06328207796
196.524565571       3.95041550171
197.024628079       3.84269155584
197.524690586       3.74109286261
198.024753094       3.64624744408
198.524815602       3.55849708562
199.02487811       3.47796074513
199.524940618       3.40459020971
200.025003125       3.33821704726
200.525065633       3.27859108187
201.025128141       3.22541129265
201.525190649       3.17835035028
202.025253157       3.13707409208
202.525315664       3.10125718674
203.025378172       3.07059611526
203.52544068       3.04482042562
204.025503188       3.0237030173
204.525565696       3.00706997213
205.025628204       2.99481015528
205.525690711       2.98688444912
206.025753219       2.98333404438
206.525815727       2.98428671799
207.025878235       2.98995953707
207.525940743       3.00065606965
208.02600325       3.01675614107
208.526065758       3.03869666441
209.026128266       3.06694325157
209.526190774       3.10195415544
210.026253282       3.14414028623
210.526315789       3.19382695812
211.026378297       3.25122388541
211.526440805       3.31640917539
212.026503313       3.38933061763
212.526565821       3.46982408527
213.026628329       3.5576454416
213.526690836       3.6525100575
214.026753344       3.7541334626
214.526815852       3.8622676644
215.02687836       3.97672965556
215.526940868       4.09742081829
216.027003375       4.22433772944
216.527065883       4.35757598769
217.027128391       4.49732912814
217.527190899       4.64388463012
218.027253407       4.79761867668
218.527315914       4.95899087071
219.027378422       5.12853967361
219.52744093       5.3068789665
220.027503438       5.49469585631
220.527565946       5.69274965103
221.027628454       5.90187178805
221.527690961       6.12296639396
222.027753469       6.35701106203
222.527815977       6.60505733552
223.027878485       6.86823026601
223.527940993       7.14772626275
224.0280035       7.44480825048
224.528066008       7.76079690039
225.028128516       8.0970563871
225.528191024       8.45497275474
226.028253532       8.83592256116
226.52831604       9.24122904281
227.028378547       9.67210266955
227.528441055       10.1295627485
228.028503563       10.6143368676
228.528566071       11.1267357003
229.028628579       11.6665023782
229.528691086       12.232638692
230.028753594       12.8232152372
230.528816102       13.4351795249
231.02887861       14.0641848762
231.528941118       14.7044726011
232.029003625       15.3488483453
232.529066133       15.9887969334
233.029128641       16.6147739379
233.529191149       17.216692316
234.029253657       17.7845873448
234.529316165       18.3093969924
235.029378672       18.7837491039
235.52944118       19.2026180102
236.029503688       19.5637171611
236.529566196       19.8675379087
237.029628704       20.1170195185
237.529691211       20.3169202135
238.029753719       20.4730270024
238.529816227       20.591373033
239.029878735       20.6776188475
239.529941243       20.7367055917
240.03000375       20.7728196811
240.530066258       20.7896373756
241.030128766       20.7907597359
241.530191274       20.7802151068
242.030253782       20.7629037745
242.53031629       20.7448867387
243.030378797       20.7334684608
243.530441305       20.737076793
244.030503813       20.7649861923
244.530566321       20.8269524891
245.030628829       20.9328277005
245.530691336       21.0922083326
246.030753844       21.3141503493
246.530816352       21.6069667601
