#  x                 y             frequency           rot. str.
0.0      0.605453724113      14.59      3.47
0.500062507813      0.643999811868      34.50      -4.97
1.00012501563      0.685576557496      38.95      1.03
1.50018752344      0.730446179925      54.84      2.40
2.00025003125      0.778889583539      68.42      0.32
2.50031253907      0.831205483742      107.77      0.07
3.00037504688      0.887708497038      139.20      1.17
3.50043755469      0.948725802983      147.53      0.78
4.00050006251      1.01459187407      156.63      -5.35
4.50056257032      1.08564063844      170.72      -3.01
5.00062507813      1.16219429269      193.42      -2.51
5.50068758595      1.24454782785      223.71      -0.16
6.00075009376      1.33294819034      232.74      7.38
6.50081260158      1.42756690708      246.48      -1.53
7.00087510939      1.52846501667      250.51      16.88
7.5009376172      1.63554935322      277.50      -34.06
8.00100012502      1.74851974549      292.59      -18.73
8.50106263283      1.86680767039      314.64      -6.15
9.00112514064      1.98950849824      342.43      2.29
9.50118764846      2.11531181109      349.32      2.83
10.0012501563      2.24243736703      364.73      -5.27
10.5013126641      2.36858787048      383.93      1.84
11.0013751719      2.49093313378      421.02      -6.05
11.5014376797      2.60614230736      424.21      4.92
12.0015001875      2.7104799887      451.29      -3.95
12.5015626953      2.79997649259      470.32      -1.59
13.0016252032      2.8706713832      512.62      24.44
13.501687711      2.91891327745      527.34      -9.34
14.0017502188      2.94168120309      543.15      1.05
14.5018127266      2.93687900229      555.85      -9.39
15.0018752344      2.9035505326      575.65      -3.30
15.5019377422      2.84197349167      578.52      6.62
16.00200025      2.75361242411      597.82      -6.88
16.5020627578      2.64094039708      608.87      -1.19
17.0021252657      2.50716471057      630.89      -7.02
17.5021877735      2.35590697723      655.99      -1.38
18.0022502813      2.19088882921      657.30      -0.99
18.5023127891      2.01566362763      669.28      2.11
19.0023752969      1.83341750619      698.28      -4.84
19.5024378047      1.64684591851      729.28      -9.50
20.0025003125      1.45809876171      766.85      -38.57
20.5025628204      1.26877970307      775.67      8.06
21.0026253282      1.07998304268      792.93      -0.01
21.502687836      0.892352746421      819.36      -27.64
22.0027503438      0.706151465957      838.70      58.49
22.5028128516      0.521331078277      848.04      -4.38
23.0028753594      0.337599698009      858.09      -9.50
23.5029378672      0.154482866886      865.24      -6.89
24.003000375      -0.0286213627366      876.95      -5.71
24.5030628829      -0.212392367096      887.22      16.25
25.0031253907      -0.397539961253      895.63      14.04
25.5031878985      -0.584758017679      920.04      3.33
26.0032504063      -0.774675978468      933.25      -11.63
26.5033129141      -0.967805511972      946.89      2.24
27.0033754219      -1.16447977068      972.98      0.62
27.5034379297      -1.3647832443      979.48      2.89
28.0035004376      -1.56847122606      986.02      2.60
28.5035629454      -1.77487962926      1001.45      14.79
29.0036254532      -1.98282852643      1020.88      63.42
29.503687961      -2.19052648984      1026.82      -15.84
30.0037504688      -2.39548753783      1051.39      -17.68
30.5038129766      -2.59447778029      1062.12      12.40
31.0038754844      -2.78351362826      1064.65      142.08
31.5039379922      -2.95793585503      1074.31      -68.36
32.0040005001      -3.11258143751      1085.41      -10.30
32.5040630079      -3.24206557927      1110.27      -18.40
33.0041255157      -3.34116849984      1112.42      17.96
33.5041880235      -3.405297105      1124.89      -9.57
34.0042505313      -3.43096587998      1158.70      5.56
34.5043130391      -3.41622267049      1167.94      -6.42
35.0043755469      -3.36094201253      1172.37      0.20
35.5044380548      -3.26692588051      1175.29      -17.83
36.0045005626      -3.13778638762      1195.07      -152.54
36.5045630704      -2.97862722603      1209.13      -44.29
37.0046255782      -2.79557760832      1223.60      81.73
37.504688086      -2.59525406989      1225.33      -15.54
38.0047505938      -2.38422828596      1251.35      44.28
38.5048131016      -2.16856626264      1266.40      15.69
39.0048756095      -1.95348261226      1272.85      -12.35
39.5049381173      -1.74312975697      1281.54      114.55
40.0050006251      -1.54052037968      1284.88      -0.06
40.5050631329      -1.34756470223      1297.61      -103.54
41.0051256407      -1.16519337105      1310.21      -14.90
41.5051881485      -0.993532268001      1329.26      -3.98
42.0052506563      -0.83209704478      1341.33      -9.18
42.5053131641      -0.679981257005      1343.54      -13.93
43.005375672      -0.536020553411      1348.37      -31.86
43.5054381798      -0.398924217661      1351.69      13.11
44.0055006876      -0.267372736431      1356.43      19.11
44.5055631954      -0.140085114677      1370.33      12.73
45.0056257032      -0.0158623370007      1378.97      -12.40
45.505688211      0.106385831062      1384.60      -19.03
46.0057507188      0.227623927656      1385.77      11.59
46.5058132267      0.348678023773      1403.11      20.26
47.0058757345      0.470222586765      1405.30      25.95
47.5059382423      0.592763687001      1430.24      50.24
48.0060007501      0.716616421607      1457.83      -4.63
48.5060632579      0.841875615385      1481.16      -2.03
49.0061257657      0.968380205592      1492.01      -4.48
49.5061882735      1.09567337504      1494.96      -0.43
50.0062507813      1.22296256632      1498.86      -10.80
50.5063132892      1.34908595283      1500.72      1.15
51.006375797      1.47249448579      1503.61      26.14
51.5064383048      1.5912606687      1508.52      -3.78
52.0065008126      1.70312576047      1511.79      0.09
52.5065633204      1.80559498133      1551.21      -0.68
53.0066258282      1.8960844869      1604.73      30.22
53.506688336      1.97211422484      1633.59      -0.56
54.0067508439      2.03152866657      1666.21      3.28
54.5068133517      2.07271597281      2210.42      -4.40
55.0068758595      2.0947896671      3006.32      -4.72
55.5069383673      2.09769902537      3013.05      -0.44
56.0070008751      2.08224615891      3021.44      4.06
56.5070633829      2.0500064048      3033.07      -4.01
57.0071258907      2.00316836498      3034.46      4.00
57.5071883985      1.94432447953      3046.30      -38.41
58.0072509064      1.87624842289      3050.49      17.62
58.5073134142      1.80169167648      3061.78      -2.40
59.007375922      1.7232213559      3064.28      42.91
59.5074384298      1.64310904943      3069.36      -2.26
60.0075009376      1.56326971477      3072.73      37.00
60.5075634454      1.48524256042      3081.10      -26.95
61.0076259532      1.41020259463      3091.21      5.37
61.5076884611      1.33899135589      3130.71      14.03
62.0077509689      1.27215705983      3131.48      -2.65
62.5078134767      1.20999693702      3136.04      -3.95
63.0078759845      1.15259715562      3192.08      -0.29
63.5079384923      1.09986802685      3199.99      -1.23
64.0080010001      1.05157403391      3213.37      0.40
64.5080635079      1.00735959026      3227.36      1.11
65.0081260158      0.966772338698      3469.70      -12.42
65.5081885236      0.929286234075      3803.62      8.20
66.0082510314       0.894326553102
66.5083135392       0.861298278855
67.008376047       0.82961802592
67.5084385548       0.798747987456
68.0085010626       0.768228706136
68.5085635704       0.737706366718
69.0086260783       0.706950304842
69.5086885861       0.675857732848
70.0087510939       0.64444500909
70.5088136017       0.612827395799
71.0088761095       0.581191307668
71.5089386173       0.549763951654
72.0090011251       0.518784890023
72.509063633       0.488482769093
73.0091261408       0.459058808447
73.5091886486       0.430677152282
74.0092511564       0.403461146678
74.5093136642       0.377494092209
75.009376172       0.352822937915
75.5094386798       0.329463573232
76.0095011876       0.307406688616
76.5095636955       0.286623505226
77.0096262033       0.267070958337
77.5096887111       0.248696134852
78.0097512189       0.23143991235
78.5098137267       0.215239837126
79.0098762345       0.200032326211
79.5099387423       0.185754297361
80.0100012502       0.172344332324
80.510063758       0.159743470283
81.0101262658       0.147895715567
81.5101887736       0.136748329672
82.0102512814       0.126251964209
82.5103137892       0.11636067948
83.010376297       0.107031883299
83.5104388049       0.0982262163826
84.0105013127       0.0899074040466
84.5105638205       0.0820420887464
85.0106263283       0.0745996539962
85.5106888361       0.0675520471555
86.0107513439       0.0608736062777
86.5108138517       0.0545408945056
87.0108763595       0.0485325442486
87.5109388674       0.0428291124643
88.0110013752       0.0374129477134
88.511063883       0.0322680691967
89.0111263908       0.0273800576587
89.5111888986       0.022735957816
90.0112514064       0.0183241918097
90.5113139142       0.0141344830591
91.0113764221       0.0101577897926
91.5114389299       0.0063862474235
92.0115014377       0.00281311881429
92.5115639455       -0.000567248696959
93.0116264533       -0.00375946086449
93.5116889611       -0.00676711037214
94.0117514689       -0.00959280905253
94.5118139767       -0.0122382211917
95.0118764846       -0.0147041014096
95.5119389924       -0.0169903416404
96.0120015002       -0.0190960330652
96.512064008       -0.0210195505332
97.0121265158       -0.0227586690821
97.5121890236       -0.0243107246524
98.0122515314       -0.0256728339409
98.5123140393       -0.0268421914133
99.0123765471       -0.0278164644648
99.5124390549       -0.0285943100004
100.012501563       -0.0291760363015
100.512564071       -0.0295644314343
101.012626578       -0.0297657714488
101.512689086       -0.0297910053899
102.012751594       -0.0296570864461
102.512814102       -0.0293883764938
103.01287661       -0.0290179937398
103.512939117       -0.0285889031291
104.013001625       -0.0281544768688
104.513064133       -0.0277781978486
105.013126641       -0.0275321721047
105.513189149       -0.0274941929433
106.013251656       -0.0277432859847
106.513314164       -0.028353960288
107.013376672       -0.029389747839
107.51343918       -0.0308969329226
108.013501688       -0.0328995287413
108.513564196       -0.0353964522749
109.013626703       -0.0383614660346
109.513689211       -0.0417458942425
110.013751719       -0.0454835573388
110.513814227       -0.0494969799991
111.013876735       -0.0537038139589
111.513939242       -0.0580225669137
112.01400175       -0.0623770453255
112.514064258       -0.0666992765191
113.014126766       -0.0709309737595
113.514189274       -0.0750237976344
114.014251781       -0.0789387460926
114.514314289       -0.0826450005218
115.014376797       -0.0861185014467
115.514439305       -0.0893404552022
116.014501813       -0.0922959026128
116.514564321       -0.0949724226836
117.014626828       -0.0973590017784
117.514689336       -0.0994450706528
118.014751844       -0.101219695179
118.514814352       -0.102670898391
119.01487686       -0.10378508875
119.514939367       -0.10454657015
120.015001875       -0.104937111529
120.515064383       -0.104935557199
121.015126891       -0.104517462428
121.515189399       -0.103654742302
122.015251906       -0.102315325258
122.515314414       -0.100462806023
123.015376922       -0.0980560962198
123.51543943       -0.0950490746873
124.015501938       -0.0913902440843
124.515564446       -0.0870224057622
125.015626953       -0.0818823717944
125.515689461       -0.0759007418564
126.015751969       -0.0690017840358
126.515814477       -0.0611034733485
127.015876985       -0.0521177605869
127.515939492       -0.0419511680517
128.016002       -0.0305058386065
128.516064508       -0.017681201056
129.016127016       -0.00337645824665
129.516189524       0.0125058463154
130.016252032       0.0300548749007
130.516314539       0.0493447965811
131.016377047       0.0704259476069
131.516439555       0.0933134500339
132.016502063       0.117972939448
132.516564571       0.144303200354
133.016627078       0.172115799871
133.516689586       0.201112300849
134.016752094       0.230860370157
134.516814602       0.260771087558
135.01687711       0.290080939955
135.516939617       0.317843162147
136.017002125       0.342933896632
136.517064633       0.364078565873
137.017127141       0.379902295601
137.517189649       0.389004791192
138.017252157       0.390054867026
138.517314664       0.381893797914
139.017377172       0.363631568348
139.51743968       0.334718044538
140.017502188       0.294973597209
140.517564696       0.244570743313
141.017627203       0.183968103289
141.517689711       0.113807381146
142.017752219       0.0347903594018
142.517814727       -0.052445320081
143.017877235       -0.147435106078
143.517939742       -0.249969393773
144.01800225       -0.360141567077
144.518064758       -0.478359775275
145.018127266       -0.605323096044
145.518189774       -0.741965106799
146.018252282       -0.889370183422
146.518314789       -1.0486704089
147.018377297       -1.22093346967
147.518439805       -1.40705336712
148.018502313       -1.6076550186
148.518564821       -1.82302025373
149.018627328       -2.05303684403
149.518689836       -2.29716571583
150.018752344       -2.55441661154
150.518814852       -2.82332100435
151.01887736       -3.10189376296
151.518939867       -3.38758141706
152.019002375       -3.67720356449
152.519064883       -3.96690329322
153.019127391       -4.25213062545
153.519189899       -4.52768788432
154.019252407       -4.78786521475
154.519314914       -5.02668598877
155.019377422       -5.23826425485
155.51943993       -5.41725103758
156.019502438       -5.55931819054
156.519564946       -5.66160619449
157.019627453       -5.72305526561
157.519689961       -5.74455342918
158.019752469       -5.7288693846
158.519814977       -5.68038235254
159.019877485       -5.60466142904
159.519939992       -5.50797090283
160.0200025       -5.39678028942
160.520065008       -5.27734161724
161.020127516       -5.15537032725
161.520190024       -5.0358394019
162.020252532       -4.92287565328
162.520315039       -4.81973511436
163.020377547       -4.72883057611
163.520440055       -4.65178620027
164.020502563       -4.58949925194
164.520565071       -4.54219534703
165.020627578       -4.50947001842
165.520690086       -4.49031538286
166.020752594       -4.48313614713
166.520815102       -4.4857641039
167.02087761       -4.49548439188
167.520940118       -4.50908945847
168.021002625       -4.52297673128
168.521065133       -4.53330212255
169.021127641       -4.53619269046
169.521190149       -4.5280083685
170.021252657       -4.50562701725
170.521315164       -4.46671364653
171.021377672       -4.40992890713
171.52144018       -4.3350378037
172.021502688       -4.242897087
172.521565196       -4.13532424861
173.021627703       -4.01487468154
173.521690211       -3.8845689892
174.021752719       -3.74761584963
174.521815227       -3.60716826624
175.021877735       -3.46613691991
175.521940243       -3.32706905152
176.02200275       -3.19208893572
176.522065258       -3.06288841527
177.022127766       -2.94075304467
177.522190274       -2.82660991314
178.022252782       -2.7210856684
178.522315289       -2.62456638058
179.022377797       -2.53725384747
179.522440305       -2.45921534192
180.022502813       -2.39042553043
180.522565321       -2.33080040425
181.022627828       -2.28022368894
181.522690336       -2.23856647067
182.022752844       -2.20570081579
182.522815352       -2.18150805381
183.02287786       -2.16588220517
183.522940368       -2.15872880564
184.023002875       -2.15995913701
184.523065383       -2.16947964181
185.023127891       -2.18717610095
185.523190399       -2.21289202122
186.023252907       -2.24640066155
186.523315414       -2.28737029308
187.023377922       -2.33532273101
187.52344043       -2.38958600822
188.023502938       -2.44924339047
188.523565446       -2.51308282432
189.023627953       -2.57955330414
189.523690461       -2.64673725874
190.023752969       -2.71235027866
190.523815477       -2.77378034031
191.023877985       -2.82817688856
191.523940493       -2.87259459805
192.024003       -2.90418702078
192.524065508       -2.92043284703
193.024128016       -2.91936523947
193.524190524       -2.8997670403
194.024253032       -2.86129563245
194.524315539       -2.80451237007
195.024378047       -2.7308103831
195.524440555       -2.6422554414
196.024503063       -2.54137076795
196.524565571       -2.43090364884
197.024628079       -2.31360869344
197.524690586       -2.19207245894
198.024753094       -2.06859131379
198.524815602       -1.94510286314
199.02487811       -1.82316330218
199.524940618       -1.70395918902
200.025003125       -1.58834159047
200.525065633       -1.47687211493
201.025128141       -1.36987283995
201.525190649       -1.26747473036
202.025253157       -1.16966136416
202.525315664       -1.07630646076
203.025378172       -0.987204846204
203.52544068       -0.902097184262
204.025503188       -0.820689166348
204.525565696       -0.742665995886
205.025628204       -0.66770300842
205.525690711       -0.595473199907
206.025753219       -0.525652332628
206.525815727       -0.457922176168
207.025878235       -0.391972334068
207.525940743       -0.327501011673
208.02600325       -0.264214999987
208.526065758       -0.201829083764
209.026128266       -0.140065028335
209.526190774       -0.07865025692
210.026253282       -0.0173162963919
210.526315789       0.0442029571407
211.026378297       0.10617312266
211.526440805       0.168861355145
212.026503313       0.232538503655
212.526565821       0.297481418975
213.026628329       0.363975433531
213.526690836       0.432317045516
214.026753344       0.502816847386
214.526815852       0.575802745758
215.02687836       0.651623524344
215.526940868       0.730652802047
216.027003375       0.813293431914
216.527065883       0.899982368722
217.027128391       0.991195997408
217.527190899       1.08745585323
218.027253407       1.18933456832
218.527315914       1.2974617393
219.027378422       1.41252922276
219.52744093       1.53529513453
220.027503438       1.66658557666
220.527565946       1.80729288786
221.027628454       1.95836907393
221.527690961       2.12081310034
222.027753469       2.29565096925
222.527815977       2.48390794224
223.027878485       2.68657278416
223.527940993       2.9045542693
224.0280035       3.13863015694
224.528066008       3.38938827175
225.028128516       3.65715832848
225.528191024       3.94193214476
226.028253532       4.24326954294
226.52831604       4.56018824477
227.028378547       4.89103894631
227.528441055       5.23337176072
228.028503563       5.58380718269
228.528566071       5.93793300123
229.028628579       6.29025679579
229.528691086       6.63424948302
230.028753594       6.96251558312
230.528816102       7.26711681118
231.02887861       7.54005467138
231.528941118       7.77388548548
232.029003625       7.96240334004
232.529066133       8.10129367128
233.029128641       8.18864587101
233.529191149       8.2252272181
234.029253657       8.21446302721
234.529316165       8.16212790734
235.029378672       8.07581145171
235.52944118       7.96426027082
236.029503688       7.83670750662
236.529566196       7.70228299459
237.029628704       7.56956286366
237.529691211       7.44627976218
238.029753719       7.33918419091
238.529816227       7.25402828113
239.029878735       7.19563557364
239.529941243       7.16802090856
240.03000375       7.17452965895
240.530066258       7.21797204449
241.030128766       7.30073405954
241.530191274       7.4248506398
242.030253782       7.59202892598
