#  x                 y             frequency           rot. str.
0.0      -0.0217991194111      29.65      -0.59
0.500062507813      -0.0218668678853      36.38      -0.56
1.00012501563      -0.0219485006082      47.48      5.94
1.50018752344      -0.0220458045605      73.27      -13.09
2.00025003125      -0.0221607622936      86.61      8.06
2.50031253907      -0.0222955732774      133.92      -1.72
3.00037504688      -0.0224526776554      134.87      -2.52
3.50043755469      -0.0226347826861      141.74      -3.80
4.00050006251      -0.0228448921768      153.74      1.79
4.50056257032      -0.0230863392551      177.94      1.65
5.00062507813      -0.0233628228562      209.37      1.74
5.50068758595      -0.0236784483432      219.32      5.80
6.00075009376      -0.0240377727231      227.36      -8.71
6.50081260158      -0.0244458549589      245.45      3.12
7.00087510939      -0.0249083119267      266.59      3.04
7.5009376172      -0.0254313806063      309.05      0.76
8.00100012502      -0.0260219871364      323.22      -14.64
8.50106263283      -0.0266878233962      339.30      -10.67
9.00112514064      -0.0274374318008      349.39      -3.03
9.50118764846      -0.028280298999      375.65      -3.84
10.0012501563      -0.0292269591455      405.64      2.06
10.5013126641      -0.0302891073554      410.92      5.96
11.0013751719      -0.0314797238374      426.91      -31.73
11.5014376797      -0.032813209009      443.82      -11.88
12.0015001875      -0.0343055295961      461.08      29.76
12.5015626953      -0.0359743752739      476.98      -3.73
13.0016252032      -0.0378393247557      525.32      11.78
13.501687711      -0.039922019315      531.80      4.94
14.0017502188      -0.0422463404402      549.98      12.48
14.5018127266      -0.044838586549      552.12      -22.39
15.0018752344      -0.0477276412708      569.04      6.21
15.5019377422      -0.0509451225521      600.32      -1.29
16.00200025      -0.0545254974816      610.45      -13.62
16.5020627578      -0.0585061419839      637.69      -3.57
17.0021252657      -0.0629273169912      650.36      0.20
17.5021877735      -0.067832022974      661.14      18.60
18.0022502813      -0.073265682295      662.34      -19.92
18.5023127891      -0.0792755833077      677.31      3.77
19.0023752969      -0.0859100010825      697.38      -14.74
19.5024378047      -0.0932168870163      733.36      4.16
20.0025003125      -0.101241993817      770.52      -12.36
20.5025628204      -0.110026274866      786.25      -2.28
21.0026253282      -0.119602370785      801.75      -10.92
21.502687836      -0.129989976636      820.79      -49.64
22.0027503438      -0.141189879712      829.36      46.14
22.5028128516      -0.153176484076      840.70      33.66
23.0028753594      -0.165888713263      855.49      -8.45
23.5029378672      -0.179219331576      860.70      14.26
24.003000375      -0.193002974083      883.00      67.52
24.5030628829      -0.207003547955      899.40      -89.47
25.0031253907      -0.220902166396      904.00      11.04
25.5031878985      -0.234287364303      933.67      -22.18
26.0032504063      -0.246649919245      941.25      4.48
26.5033129141      -0.257384973776      944.44      -14.66
27.0033754219      -0.265804057095      964.32      -0.21
27.5034379297      -0.271158744452      984.73      5.62
28.0035004376      -0.272675883889      987.32      8.66
28.5035629454      -0.26960165305      990.74      2.01
29.0036254532      -0.261248698868      1018.86      21.96
29.503687961      -0.247038188534      1027.31      10.19
30.0037504688      -0.226527835544      1043.29      -13.04
30.5038129766      -0.199418598502      1051.93      13.43
31.0038754844      -0.165536721137      1060.75      12.16
31.5039379922      -0.124793097311      1069.18      31.89
32.0040005001      -0.077127039907      1079.93      0.22
32.5040630079      -0.0224449433463      1102.99      23.07
33.0041255157      0.0394347249943      1122.88      -38.90
33.5041880235      0.108820125209      1129.08      7.19
34.0042505313      0.186161673806      1150.09      -11.88
34.5043130391      0.272042011564      1156.66      2.21
35.0043755469      0.367142150586      1171.58      -3.08
35.5044380548      0.472189718432      1183.99      9.85
36.0045005626      0.587898286373      1210.79      -1.92
36.5045630704      0.71490809333      1223.55      -139.87
37.0046255782      0.853737462291      1227.35      31.49
37.504688086      1.0047507869      1244.87      16.47
38.0047505938      1.16814387352      1246.80      -9.19
38.5048131016      1.34394205703      1265.67      -22.77
39.0048756095      1.53200240431      1268.22      97.14
39.5049381173      1.73200952037      1275.82      -26.10
40.0050006251      1.94345518272      1285.56      -5.66
40.5050631329      2.16559473154      1303.72      -9.67
41.0051256407      2.3973770356      1325.59      13.57
41.5051881485      2.63734930545      1332.64      6.56
42.0052506563      2.88354279769      1336.95      -18.15
42.5053131641      3.13335062555      1344.69      -20.57
43.005375672      3.38341455718      1351.50      -4.33
43.5054381798      3.62954355192      1353.32      -5.75
44.0055006876      3.8666917975      1358.65      -22.09
44.5055631954      4.0890261424      1366.07      34.03
45.0056257032      4.29010927465      1378.84      0.01
45.505688211      4.4632130405      1381.23      17.07
46.0057507188      4.60175474044      1387.33      0.79
46.5058132267      4.69982025351      1404.18      11.54
47.0058757345      4.75270801768      1407.45      -7.01
47.5059382423      4.75740732217      1442.53      21.70
48.0060007501      4.71292304743      1471.47      22.01
48.5060632579      4.62038172312      1479.40      0.50
49.0061257657      4.4828963758      1490.73      -0.17
49.5061882735      4.30521741605      1491.93      8.01
50.0062507813      4.09323782865      1500.87      -7.53
50.5063132892      3.85344119988      1501.88      23.29
51.006375797      3.5923774637      1507.84      -20.66
51.5064383048      3.3162292551      1510.40      25.44
52.0065008126      3.03050168507      1516.64      1.15
52.5065633204      2.739840069      1546.69      -4.62
53.0066258282      2.4479598104      1610.67      16.01
53.506688336      2.15766203019      1634.66      -7.20
54.0067508439      1.87090621002      1662.99      19.97
54.5068133517      1.5889142376      2204.98      10.56
55.0068758595      1.31228595604      3001.38      -25.62
55.5069383673      1.04111251159      3011.12      6.56
56.0070008751      0.775079237998      3027.10      -6.37
56.5070633829      0.513554008434      3031.89      -0.45
57.0071258907      0.255659891153      3043.59      21.50
57.5071883985      0.000332761941209      3054.63      4.19
58.0072509064      -0.253634470448      3059.93      -7.88
58.5073134142      -0.50755891534      3064.28      -18.79
59.007375922      -0.762843796367      3066.45      -8.56
59.5074384298      -1.02096141474      3073.78      -6.84
60.0075009376      -1.28344091858      3083.24      3.23
60.5075634454      -1.55185892616      3089.45      6.60
61.0076259532      -1.82783110613      3102.25      13.26
61.5076884611      -2.11300279096      3110.77      -1.67
62.0077509689      -2.40903657377      3134.49      -0.37
62.5078134767      -2.71759460597      3137.12      -2.88
63.0078759845      -3.04031297197      3186.24      -0.25
63.5079384923      -3.37876508098      3202.13      -0.13
64.0080010001      -3.73441051547      3211.01      6.69
64.5080635079      -4.10852527531      3217.39      -0.51
65.0081260158      -4.50210897015      3465.34      10.24
65.5081885236      -4.91576442734      3734.71      26.63
66.0082510314       -5.34954568696
66.5083135392       -5.80277185679
67.008376047       -6.27380733068
67.5084385548       -6.75981403892
68.0085010626       -7.25648924695
68.5085635704       -7.75781316304
69.0086260783       -8.2558437012
69.5086885861       -8.7406092852
70.0087510939       -9.20016084114
70.5088136017       -9.62084548277
71.0088761095       -9.98785026953
71.5089386173       -10.2860297232
72.0090011251       -10.500975638
72.509063633       -10.6202210104
73.0091261408       -10.6344101118
73.5091886486       -10.5382373013
74.0092511564       -10.3309767037
74.5093136642       -10.016496104
75.009376172       -9.60275334524
75.5094386798       -9.10087926971
76.0095011876       -8.52402457329
76.5095636955       -7.88617000058
77.0096262033       -7.20107196007
77.5096887111       -6.48145695936
78.0097512189       -5.73851168958
78.5098137267       -4.98165986447
79.0098762345       -4.21858123468
79.5099387423       -3.4554127829
80.0100012502       -2.69707173326
80.510063758       -1.94764776127
81.0101262658       -1.21082159378
81.5101887736       -0.490274931391
82.0102512814       0.209939663633
82.5103137892       0.885100627288
83.010376297       1.52962544384
83.5104388049       2.13702119785
84.0105013127       2.70001058504
84.5105638205       3.21085326125
85.0106263283       3.66185682447
85.5106888361       4.04603496594
86.0107513439       4.35782966894
86.5108138517       4.5937825171
87.0108763595       4.7530313873
87.5109388674       4.83753194913
88.0110013752       4.85195606307
88.511063883       4.80328658921
89.0111263908       4.70018886227
89.5111888986       4.55227473405
90.0112514064       4.36937807165
90.5113139142       4.16093590167
91.0113764221       3.93553001952
91.5114389299       3.70060392917
92.0115014377       3.46233928879
92.5115639455       3.22565842147
93.0116264533       2.99431383072
93.5116889611       2.77102844464
94.0117514689       2.55765750663
94.5118139767       2.35535147189
95.0118764846       2.16470699916
95.5119389924       1.98589925072
96.0120015002       1.8187930537
96.512064008       1.66303324421
97.0121265158       1.51811607277
97.5121890236       1.38344425897
98.0122515314       1.25836845273
98.5123140393       1.14221771649
99.0123765471       1.03432134461
99.5124390549       0.934023981239
100.012501563       0.840695645264
100.512564071       0.753737949509
101.012626578       0.672587524358
101.512689086       0.59671742609
102.012751594       0.525637124006
102.512814102       0.458891512896
103.01287661       0.396059282204
103.512939117       0.336750884478
104.013001625       0.280606278064
104.513064133       0.22729256792
105.013126641       0.176501630242
105.513189149       0.127947778267
106.013251656       0.0813655058001
106.513314164       0.0365073298892
107.013376672       -0.00685825686942
107.51343918       -0.0489487216227
108.013501688       -0.0899693168318
108.513564196       -0.130114802522
109.013626703       -0.169571074113
109.513689211       -0.208516706366
110.013751719       -0.247124424979
110.513814227       -0.285562517959
111.013876735       -0.323996199202
111.513939242       -0.362588936821
112.01400175       -0.401503758745
112.514064258       -0.440904548069
113.014126766       -0.480957340416
113.514189274       -0.521831635459
114.014251781       -0.563701734376
114.514314289       -0.606748114682
115.014376797       -0.651158853234
115.514439305       -0.697131107371
116.014501813       -0.74487266285
116.514564321       -0.794603555357
117.014626828       -0.846557769659
117.514689336       -0.900985016557
118.014751844       -0.958152582325
118.514814352       -1.01834723761
119.01487686       -1.08187718224
119.514939367       -1.14907398774
120.015001875       -1.22029448
120.515064383       -1.29592247781
121.015126891       -1.37637026848
121.515189399       -1.46207965518
122.015251906       -1.5535223515
122.515314414       -1.6511994215
123.015376922       -1.75563936743
123.51543943       -1.86739434768
124.015501938       -1.98703386443
124.515564446       -2.11513509503
125.015626953       -2.25226885996
125.515689461       -2.39898004074
126.015751969       -2.55576111268
126.515814477       -2.72301739245
127.015876985       -2.90102269901
127.515939492       -3.08986450327
128.016002       -3.28937844744
128.516064508       -3.49907352135
129.016127016       -3.7180513489
129.516189524       -3.94492603339
130.016252032       -4.17775470076
130.516314539       -4.41399277278
131.016377047       -4.65049111472
131.516439555       -4.88355303127
132.016502063       -5.10906584346
132.516564571       -5.32271298202
133.016627078       -5.52025792264
133.516689586       -5.69787277138
134.016752094       -5.85246630755
134.516814602       -5.98195491828
135.01687711       -6.08542076255
135.516939617       -6.16311715683
136.017002125       -6.21630904483
136.517064633       -6.24696932993
137.017127141       -6.25738071675
137.517189649       -6.24971018913
138.017252157       -6.22562636234
138.517314664       -6.18602023203
139.017377172       -6.13087142525
139.51743968       -6.05927912973
140.017502188       -5.96965227799
140.517564696       -5.86002913885
141.017627203       -5.72847453583
141.517689711       -5.57348738994
142.017752219       -5.39434716468
142.517814727       -5.19133874264
143.017877235       -4.96582070737
143.517939742       -4.72013584346
144.01800225       -4.45739508182
144.518064758       -4.18118773714
145.018127266       -3.89527683658
145.518189774       -3.60332977604
146.018252282       -3.30871707877
146.518314789       -3.01439254584
147.018377297       -2.72285187665
147.518439805       -2.43615636131
148.018502313       -2.15600341364
148.518564821       -1.88382495721
149.018627328       -1.6208960713
149.518689836       -1.36843832102
150.018752344       -1.12770404513
150.518814852       -0.900029555552
151.01887736       -0.686847344631
151.518939867       -0.489650964607
152.019002375       -0.309912052846
152.519064883       -0.148957105528
153.019127391       -0.00782087576624
153.519189899       0.112898807983
154.019252407       0.21315657305
154.519314914       0.293520568971
155.019377422       0.355164646207
155.51943993       0.399791898919
156.019502438       0.429504190762
156.519564946       0.446641886983
157.019627453       0.453620495995
157.519689961       0.452786756523
158.019752469       0.446308487583
158.519814977       0.43610345519
159.019877485       0.423805086647
159.519939992       0.410758249744
160.0200025       0.398036491242
160.520065008       0.386472386075
161.020127516       0.37669408787
161.520190024       0.369163031758
162.020252532       0.364209522438
162.520315039       0.362064393899
163.020377547       0.362885981375
163.520440055       0.366782332641
164.020502563       0.373828979663
164.520565071       0.384082774985
165.020627578       0.397592341029
165.520690086       0.414405638728
166.020752594       0.434575071779
166.520815102       0.458160427897
167.02087761       0.485229832433
167.520940118       0.515858759972
168.021002625       0.550127020063
168.521065133       0.588113507547
169.021127641       0.629888391672
169.521190149       0.675502321734
170.021252657       0.724972169037
170.521315164       0.778262835746
171.021377672       0.835264785693
171.52144018       0.895767251469
172.021502688       0.959427619894
172.521565196       1.02573836717
173.021627703       1.09399415046
173.521690211       1.16326323099
174.021752719       1.23236912764
174.521815227       1.29988988597
175.021877735       1.36418295606
175.521940243       1.42344258744
176.02200275       1.47579312636
176.522065258       1.51941539226
177.022127766       1.55269515513
177.522190274       1.57437460895
178.022252782       1.58368250558
178.522315289       1.58041897196
179.022377797       1.56497807356
179.522440305       1.53830344831
180.022502813       1.50178609974
180.522565321       1.45712430353
181.022627828       1.40617045246
181.522690336       1.35078795769
182.022752844       1.2927348066
182.522815352       1.2335819537
183.02287786       1.17466704936
183.522940368       1.11707866218
184.023002875       1.06166349259
184.523065383       1.00904864163
185.023127891       0.959671981772
185.523190399       0.913815302504
186.023252907       0.871636610252
186.523315414       0.833199436911
187.023377922       0.798498130273
187.52344043       0.767478863966
188.023502938       0.740056572224
188.523565446       0.716128262637
189.023627953       0.695583258892
189.523690461       0.6783109327
190.023752969       0.66420644041
190.523815477       0.65317491283
191.023877985       0.645134473135
191.523940493       0.640018386999
192.024003       0.63777658571
192.524065508       0.638376748557
193.024128016       0.64180508514
193.524190524       0.648066920267
194.024253032       0.657187152296
194.524315539       0.669210628514
195.024378047       0.684202456683
195.524440555       0.702248248488
196.024503063       0.723454266721
196.524565571       0.747947421805
197.024628079       0.775875032963
197.524690586       0.807404233349
198.024753094       0.842720854857
198.524815602       0.882027575902
199.02487811       0.925541053262
199.524940618       0.973487687648
200.025003125       1.02609759487
200.525065633       1.08359627708
201.025128141       1.14619342468
201.525190649       1.21406825148
202.025253157       1.28735080835
202.525315664       1.36609888516
203.025378172       1.45027046358
203.52544068       1.53969230439
204.025503188       1.63402621529
204.525565696       1.73273588862
205.025628204       1.83505886704
205.525690711       1.93998997207
206.025753219       2.04628395955
206.525815727       2.15248553354
207.025878235       2.25699328255
207.525940743       2.35815985442
208.02600325       2.45442361667
208.526065758       2.54445812217
209.026128266       2.6273171758
209.526190774       2.70254826576
210.026253282       2.77024827869
210.526315789       2.8310435795
211.026378297       2.8859898039
211.526440805       2.93640100753
212.026503313       2.98362870228
212.526565821       3.02881604433
213.026628329       3.07265105224
213.526690836       3.11513763415
214.026753344       3.15539774975
214.526815852       3.19151500969
215.02687836       3.22043067106
215.526940868       3.23790676212
216.027003375       3.23857579696
216.527065883       3.21609891067
217.027128391       3.16345055956
217.527190899       3.07333528963
218.027253407       2.93872001698
218.527315914       2.75343730968
219.027378422       2.51278919915
219.52744093       2.21406740014
220.027503438       1.8569129042
220.527565946       1.4434673167
221.027628454       0.978312330806
221.527690961       0.468237692809
222.027753469       -0.0780933735723
222.527815977       -0.650508118172
223.027878485       -1.23766409364
223.527940993       -1.82734609814
224.0280035       -2.40673855941
224.528066008       -2.96271899388
225.028128516       -3.48222692206
225.528191024       -3.952748748
226.028253532       -4.36292413294
226.52831604       -4.70323121725
227.028378547       -4.96666071309
227.528441055       -5.14925963246
228.028503563       -5.25042843493
228.528566071       -5.27289463596
229.028628579       -5.22235125026
229.528691086       -5.10681863978
230.028753594       -4.93584037122
230.528816102       -4.71964299599
231.02887861       -4.46837539243
231.528941118       -4.19150622899
232.029003625       -3.89741371857
232.529066133       -3.59316333783
233.029128641       -3.28444369815
233.529191149       -2.9756192714
234.029253657       -2.66985823928
234.529316165       -2.36930000866
235.029378672       -2.07523598408
235.52944118       -1.78828628779
236.029503688       -1.50856280499
236.529566196       -1.23581469477
237.029628704       -0.969556399963
237.529691211       -0.709180517149
238.029753719       -0.454058996168
238.529816227       -0.203636309218
239.029878735       0.0424823692169
239.529941243       0.284446233245
240.03000375       0.52207744175
240.530066258       0.754796240518
241.030128766       0.981558944189
241.530191274       1.20081869629
242.030253782       1.41052201244
242.53031629       1.60815549312
243.030378797       1.79085523278
