#  x                 y             frequency           rot. str.
0.0      0.0010957522636      20.73      1.10
0.500062507813      0.00423800129994      40.83      -2.88
1.00012501563      0.00766709025899      46.84      0.08
1.50018752344      0.0114092142781      61.97      -0.53
2.00025003125      0.0154931361929      77.03      -1.35
2.50031253907      0.0199504403797      118.84      -1.77
3.00037504688      0.0248158065973      136.78      -5.59
3.50043755469      0.0301273030549      150.00      -0.15
4.00050006251      0.0359266967923      158.56      -0.24
4.50056257032      0.0422597778397      191.90      -2.98
5.00062507813      0.0491766913654      200.46      -10.23
5.50068758595      0.0567322689125      222.80      11.01
6.00075009376      0.0649863455843      231.79      -5.54
6.50081260158      0.0740040443276      247.62      -14.20
7.00087510939      0.0838560008313      254.53      36.84
7.5009376172      0.0946184924611      288.53      -6.74
8.00100012502      0.106373421444      314.87      -6.71
8.50106263283      0.119208085424      343.91      19.77
9.00112514064      0.133214646707      352.49      2.97
9.50118764846      0.148489184193      368.47      -1.04
10.0012501563      0.165130178456      393.87      5.14
10.5013126641      0.183236240535      421.77      -4.66
11.0013751719      0.202902849416      446.50      3.56
11.5014376797      0.224217814377      450.21      -7.66
12.0015001875      0.247255131549      473.75      -1.49
12.5015626953      0.27206686883      520.22      0.85
13.0016252032      0.298672705687      529.53      -2.62
13.501687711      0.327046798922      546.45      -18.07
14.0017502188      0.357101777101      566.80      31.75
14.5018127266      0.388669930033      574.87      8.00
15.0018752344      0.421482106534      578.96      1.22
15.5019377422      0.455145508496      601.31      -0.54
16.00200025      0.489122486906      622.03      -2.62
16.5020627578      0.522713553351      631.04      30.34
17.0021252657      0.555048950599      645.53      3.60
17.5021877735      0.585093953393      659.74      21.46
18.0022502813      0.611673113461      669.27      -8.10
18.5023127891      0.633517368847      679.24      -24.21
19.0023752969      0.649334897794      713.24      -0.92
19.5024378047      0.657901862268      732.84      15.51
20.0025003125      0.658163558913      734.83      -25.23
20.5025628204      0.649331573226      783.85      -7.17
21.0026253282      0.630960289877      795.44      -2.34
21.502687836      0.602988046622      811.52      -7.61
22.0027503438      0.565734449231      833.82      -31.01
22.5028128516      0.519854267817      850.78      0.32
23.0028753594      0.466257102328      856.95      37.62
23.5029378672      0.406007889993      863.13      2.65
24.003000375      0.340224856595      883.85      -2.31
24.5030628829      0.269988956568      895.14      -8.34
25.0031253907      0.196273786118      906.74      -4.09
25.5031878985      0.119899359428      918.36      9.77
26.0032504063      0.0415085462795      928.53      -11.46
26.5033129141      -0.0384378912129      944.93      -12.65
27.0033754219      -0.119652858083      973.47      5.00
27.5034379297      -0.202006115868      975.61      -13.52
28.0035004376      -0.285503229881      988.54      21.13
28.5035629454      -0.370263220931      991.62      -6.62
29.0036254532      -0.456496717952      1019.74      71.67
29.503687961      -0.544485442919      1033.74      -11.13
30.0037504688      -0.634563122073      1041.26      -33.30
30.5038129766      -0.727097388103      1065.34      59.52
31.0038754844      -0.822471871651      1070.18      -13.79
31.5039379922      -0.921067431848      1073.30      23.42
32.0040005001      -1.02324131227      1084.65      -0.58
32.5040630079      -1.12930291938      1104.01      -38.02
33.0041255157      -1.23948491981      1118.24      28.23
33.5041880235      -1.35390848473      1128.41      5.60
34.0042505313      -1.47254185108      1150.40      -27.80
34.5043130391      -1.59515202882      1168.29      5.23
35.0043755469      -1.72125059043      1172.20      0.15
35.5044380548      -1.85003615791      1187.38      -44.61
36.0045005626      -1.98033851429      1198.79      17.24
36.5045630704      -2.11057211797      1217.63      0.52
37.0046255782      -2.23870981889      1221.96      -22.75
37.504688086      -2.36229000133      1248.41      22.22
38.0047505938      -2.47847101811      1263.64      6.62
38.5048131016      -2.58414419282      1271.33      -17.87
39.0048756095      -2.67610964627      1277.44      61.03
39.5049381173      -2.7513075777      1288.04      -3.45
40.0050006251      -2.80708307867      1291.92      -230.43
40.5050631329      -2.84144889553      1293.45      135.20
41.0051256407      -2.85330290497      1320.50      -4.95
41.5051881485      -2.84255979114      1334.61      -2.79
42.0052506563      -2.81017066372      1339.32      -8.27
42.5053131641      -2.75802674114      1343.25      -18.05
43.005375672      -2.68876678183      1355.56      5.92
43.5054381798      -2.60552519412      1358.92      -8.39
44.0055006876      -2.51166404103      1367.23      15.21
44.5055631954      -2.41052735967      1374.69      -14.83
45.0056257032      -2.30524401256      1388.15      8.10
45.505688211      -2.19859084228      1390.85      -20.74
46.0057507188      -2.09291552485      1398.75      86.33
46.5058132267      -1.99011043899      1404.76      4.34
47.0058757345      -1.89162525425      1424.98      0.57
47.5059382423      -1.79850568112      1447.47      -43.11
48.0060007501      -1.71144744852      1457.83      -9.05
48.5060632579      -1.63085687231      1480.11      6.01
49.0061257657      -1.55691164868      1493.10      -4.70
49.5061882735      -1.48961747912      1495.14      -2.30
50.0062507813      -1.428857777      1496.11      17.58
50.5063132892      -1.37443505179      1501.35      17.83
51.006375797      -1.32610362888      1505.10      -1.42
51.5064383048      -1.28359413043      1507.08      0.95
52.0065008126      -1.24663061456      1514.64      -7.56
52.5065633204      -1.21494147633      1550.11      -41.64
53.0066258282      -1.18826521191      1602.47      45.39
53.506688336      -1.1663520135      1634.27      -5.12
54.0067508439      -1.14896196852      1664.81      23.39
54.5068133517      -1.13586044291      2215.13      -3.15
55.0068758595      -1.12681108212      3007.65      -6.15
55.5069383673      -1.12156679992      3023.29      2.08
56.0070008751      -1.11985917104      3024.52      -17.38
56.5070633829      -1.12138682317      3034.30      8.05
57.0071258907      -1.12580374453      3039.38      -3.49
57.5071883985      -1.1327088748      3048.47      -20.08
58.0072509064      -1.14163886948      3056.98      -6.05
58.5073134142      -1.15206639963      3063.78      -1.54
59.007375922      -1.16340656611      3065.06      40.03
59.5074384298      -1.1750337099      3067.87      -21.81
60.0075009376      -1.18630983912      3077.82      9.85
60.5075634454      -1.19662396754      3093.01      -1.29
61.0076259532      -1.20543907207      3129.53      -2.30
61.5076884611      -1.212340727      3132.81      3.17
62.0077509689      -1.21707966617      3137.62      -9.46
62.5078134767      -1.21960044927      3168.97      0.23
63.0078759845      -1.2200504774      3190.81      -1.61
63.5079384923      -1.21876742255      3202.99      -0.03
64.0080010001      -1.21624755936      3210.11      -1.41
64.5080635079      -1.21310109336      3213.71      1.85
65.0081260158      -1.21000231334      3469.99      11.82
65.5081885236      -1.20764199229      3568.64      19.78
66.0082510314       -1.20668743318
66.5083135392       -1.20775282215
67.008376047       -1.21137998768
67.5084385548       -1.21802781216
68.0085010626       -1.22806755501
68.5085635704       -1.24178110052
69.0086260783       -1.25935939796
69.5086885861       -1.28089888647
70.0087510939       -1.3063943422
70.5088136017       -1.33572728895
71.0088761095       -1.36864989297
71.5089386173       -1.40476517699
72.0090011251       -1.44350549885
72.509063633       -1.4841125632
73.0091261408       -1.52562367602
73.5091886486       -1.56687024967
74.0092511564       -1.60649525151
74.5093136642       -1.6429957209
75.009376172       -1.67479401971
75.5094386798       -1.70033681244
76.0095011876       -1.71821430774
76.5095636955       -1.72728544566
77.0096262033       -1.72678973309
77.5096887111       -1.71642564142
78.0097512189       -1.69638013394
78.5098137267       -1.66730323993
79.0098762345       -1.63023289632
79.5099387423       -1.58648491335
80.0100012502       -1.53752802101
80.510063758       -1.48486359241
81.0101262658       -1.42992493247
81.5101887736       -1.37400424869
82.0102512814       -1.3182088776
82.5103137892       -1.26344351943
83.010376297       -1.21041262107
83.5104388049       -1.1596363687
84.0105013127       -1.11147437345
84.5105638205       -1.0661523994
85.0106263283       -1.02378889342
85.5106888361       -0.984419333807
86.0107513439       -0.948017392668
86.5108138517       -0.914512588408
87.0108763595       -0.883804532415
87.5109388674       -0.855774108326
88.0110013752       -0.830292024026
88.511063883       -0.807225194591
89.0111263908       -0.78644138508
89.5111888986       -0.767812490035
90.0112514064       -0.751216766895
90.5113139142       -0.736540282298
91.0113764221       -0.723677777766
91.5114389299       -0.712533116403
92.0115014377       -0.703019435157
92.5115639455       -0.695059097387
93.0116264533       -0.688583516926
93.5116889611       -0.683532906554
94.0117514689       -0.679855989806
94.5118139767       -0.677509704439
95.0118764846       -0.676458917943
95.5119389924       -0.676676169659
96.0120015002       -0.67814144976
96.512064008       -0.680842022301
97.0121265158       -0.684772297337
97.5121890236       -0.689933755633
98.0122515314       -0.696334928401
98.5123140393       -0.703991433827
99.0123765471       -0.712926071599
99.5124390549       -0.723168976275
100.012501563       -0.734757829865
100.512564071       -0.747738133538
101.012626578       -0.762163537575
101.512689086       -0.778096227668
102.012751594       -0.795607364052
102.512814102       -0.814777567716
103.01287661       -0.835697444697
103.512939117       -0.858468134944
104.013001625       -0.883201866041
104.513064133       -0.910022483584
105.013126641       -0.939065918646
105.513189149       -0.970480537576
106.013251656       -1.00442729945
106.513314164       -1.04107962055
107.013376672       -1.08062281207
107.51343918       -1.12325291531
108.013501688       -1.16917470705
108.513564196       -1.21859858582
109.013626703       -1.27173597853
109.513689211       -1.32879282897
110.013751719       -1.38996065359
110.513814227       -1.45540458809
111.013876735       -1.52524782547
111.513939242       -1.59955189817
112.01400175       -1.67829243635
112.514064258       -1.76133041188
113.014126766       -1.84837953273
113.514189274       -1.93897146361
114.014251781       -2.03242195136
114.514314289       -2.12780267188
115.014376797       -2.22392545972
115.514439305       -2.319347063
116.014501813       -2.41240295251
116.514564321       -2.50127711804
117.014626828       -2.58411046789
117.514689336       -2.65914330179
118.014751844       -2.72487838649
118.514814352       -2.7802427731
119.01487686       -2.82472180456
119.514939367       -2.85844045595
120.015001875       -2.88217593768
120.515064383       -2.89729928777
121.015126891       -2.9056581987
121.515189399       -2.90942395364
122.015251906       -2.91092920408
122.515314414       -2.91252030474
123.015376922       -2.91644026767
123.51543943       -2.92474927241
124.015501938       -2.93928174886
124.515564446       -2.96163376491
125.015626953       -2.99317198785
125.515689461       -3.03505523687
126.015751969       -3.08826071532
126.515814477       -3.15360860811
127.015876985       -3.23178030376
127.515939492       -3.32332676856
128.016002       -3.42866448836
128.516064508       -3.54805696357
129.016127016       -3.68158014251
129.516189524       -3.82907061237
130.016252032       -3.99005608122
130.516314539       -4.16366896421
131.016377047       -4.34854603066
131.516439555       -4.54272033713
132.016502063       -4.74351617289
132.516564571       -4.94746325242
133.016627078       -5.15025210422
133.516689586       -5.34675693827
134.016752094       -5.53115282425
134.516814602       -5.69714796968
135.01687711       -5.83833707038
135.516939617       -5.94865814833
136.017002125       -6.02290677441
136.517064633       -6.05723596375
137.017127141       -6.04955734744
137.517189649       -5.99976741597
138.017252157       -5.9097529015
138.517314664       -5.78317406588
139.017377172       -5.62506975493
139.51743968       -5.44135935874
140.017502188       -5.23832619438
140.517564696       -5.02215507038
141.017627203       -4.79857160759
141.517689711       -4.57260231091
142.017752219       -4.34845046237
142.517814727       -4.12946764019
143.017877235       -3.91819426109
143.517939742       -3.71644289138
144.01800225       -3.52540237603
144.518064758       -3.34574666403
145.018127266       -3.17773793288
145.518189774       -3.02131839403
146.018252282       -2.87618872057
146.518314789       -2.74187342629
147.018377297       -2.61777491528
147.518439805       -2.50321849859
148.018502313       -2.39749059793
148.518564821       -2.29987177029
149.018627328       -2.20966527064
149.518689836       -2.1262208685
150.018752344       -2.048952853
150.518814852       -1.97735088289
151.01887736       -1.91098270299
151.518939867       -1.84948866493
152.019002375       -1.79256914692
152.519064883       -1.73996696935
153.019127391       -1.69144745223
153.519189899       -1.64677877643
154.019252407       -1.60571492758
154.519314914       -1.56798295373
155.019377422       -1.5332757551
155.51943993       -1.50125121604
156.019502438       -1.47153811652
156.519564946       -1.44374876935
157.019627453       -1.41749758798
157.519689961       -1.39242379128
158.019752469       -1.36821538538
158.519814977       -1.34463079337
159.019877485       -1.32151443402
159.519939992       -1.29880341377
160.0200025       -1.27652417883
160.520065008       -1.25478000797
161.020127516       -1.23373197379
161.520190024       -1.21357694743
162.020252532       -1.19452619112
162.520315039       -1.17678726483
163.020377547       -1.16055076978
163.520440055       -1.14598227439
164.020502563       -1.13321889151
164.520565071       -1.1223694918
165.020627578       -1.11351740191
165.520690086       -1.10672453776
166.020752594       -1.1020361432
166.520815102       -1.09948555409
167.02087761       -1.09909863185
167.520940118       -1.10089768618
168.021002625       -1.1049048292
168.521065133       -1.11114478079
169.021127641       -1.11964718809
169.521190149       -1.13044854075
170.021252657       -1.14359376768
170.521315164       -1.15913759662
171.021377672       -1.17714574851
171.52144018       -1.19769602906
172.021502688       -1.2208793694
172.521565196       -1.24680085858
173.021627703       -1.27558080274
173.521690211       -1.30735583872
174.021752719       -1.34228012387
174.521815227       -1.38052661821
175.021877735       -1.42228846971
175.521940243       -1.46778050772
176.02200275       -1.5172408426
176.522065258       -1.57093256173
177.022127766       -1.62914550071
177.522190274       -1.69219805509
178.022252782       -1.76043897879
178.522315289       -1.8342490907
179.022377797       -1.91404277847
179.522440305       -2.00026914574
180.022502813       -2.09341259448
180.522565321       -2.19399256453
181.022627828       -2.30256206629
181.522690336       -2.41970453818
182.022752844       -2.54602843873
182.522815352       -2.68215884889
183.02287786       -2.82872522329
183.522940368       -2.9863443125
184.023002875       -3.15559721676
184.523065383       -3.33699958401
185.023127891       -3.53096421506
185.523190399       -3.73775589843
186.023252907       -3.95743929984
186.523315414       -4.18982230365
187.023377922       -4.43439941571
187.52344043       -4.69030260642
188.023502938       -4.95626994556
188.523565446       -5.23064480217
189.023627953       -5.51141905521
189.523690461       -5.79633119332
190.023752969       -6.08302306678
190.523815477       -6.36924706458
191.023877985       -6.65310015454
191.523940493       -6.93324632307
192.024003       -7.20907979783
192.524065508       -7.48078287401
193.024128016       -7.74924601462
193.524190524       -8.01584140776
194.024253032       -8.28206776641
194.524315539       -8.54910642849
195.024378047       -8.81734194871
195.524440555       -9.08590400912
196.024503063       -9.35228489463
196.524565571       -9.61208221807
197.024628079       -9.85891233024
197.524690586       -10.0845346429
198.024753094       -10.2792163987
198.524815602       -10.4323456407
199.02487811       -10.5332641043
199.524940618       -10.5722444278
200.025003125       -10.5414884738
200.525065633       -10.4359928112
201.025128141       -10.2541302083
201.525190649       -9.99783959869
202.025253157       -9.67239301534
202.525315664       -9.28579389029
203.025378172       -8.84792965959
203.52544068       -8.36963324547
204.025503188       -7.86179860922
204.525565696       -7.33465577858
205.025628204       -6.79725850144
205.525690711       -6.25718962664
206.025753219       -5.72045547687
206.525815727       -5.19152337195
207.025878235       -4.67345331984
207.525940743       -4.16808073932
208.02600325       -3.67621707715
208.526065758       -3.19784580814
209.026128266       -2.73230055894
209.526190774       -2.27841919063
210.026253282       -1.83467259509
210.526315789       -1.39927006973
211.026378297       -0.970244913931
211.526440805       -0.545524789548
212.026503313       -0.122991770774
212.526565821       0.299462864718
213.026628329       0.723884015517
213.526690836       1.15219318985
214.026753344       1.5861188426
214.526815852       2.02711149197
215.02687836       2.47623871965
215.526940868       2.934055826
216.027003375       3.40044936427
216.527065883       3.87445346687
217.027128391       4.35404332016
217.527190899       4.83591681266
218.027253407       5.3152844738
218.527315914       5.78569889593
219.027378422       6.23896634084
219.52744093       6.66519207979
220.027503438       7.05301250678
220.527565946       7.39005567306
221.027628454       7.66364328015
221.527690961       7.86170129798
222.027753469       7.97379053637
222.527815977       7.99211805002
223.027878485       7.9123648958
223.527940993       7.73418126122
224.0280035       7.46125895353
224.528066008       7.10097879143
225.028128516       6.66371890366
225.528191024       6.16197098126
226.028253532       5.60942866858
226.52831604       5.02018647972
227.028378547       4.40813380417
227.528441055       3.78656671062
228.028503563       3.16798715242
228.528566071       2.56402443274
229.028628579       1.98540028741
229.528691086       1.44186537221
230.028753594       0.942057931
230.528816102       0.493270100319
231.02887861       0.101146665084
231.528941118       -0.230624372714
232.029003625       -0.500550769441
232.529066133       -0.709429610705
233.029128641       -0.860247910826
233.529191149       -0.95788561128
234.029253657       -1.00866046561
234.529316165       -1.01978516806
235.029378672       -0.998816468942
235.52944118       -0.953164544757
236.029503688       -0.889706104391
236.529566196       -0.814516495067
237.029628704       -0.732712357295
237.529691211       -0.648381111807
238.029753719       -0.564566944658
238.529816227       -0.483282946358
239.029878735       -0.405522970286
239.529941243       -0.331252352494
240.03000375       -0.259362515531
240.530066258       -0.18758020503
241.030128766       -0.112327934854
241.530191274       -0.0285388615747
242.030253782       0.0705623160805
