#  x                 y             frequency           rot. str.
0.0      -0.296883500145      15.63      -1.60
0.500062507813      -0.313514119613      21.83      0.09
1.00012501563      -0.331363232661      45.73      6.36
1.50018752344      -0.350535734266      47.67      -4.57
2.00025003125      -0.371145097503      70.35      -7.12
2.50031253907      -0.39331356216      107.50      -0.63
3.00037504688      -0.41717209758      137.99      -0.26
3.50043755469      -0.442860037184      146.64      1.09
4.00050006251      -0.470524249035      157.21      -3.97
4.50056257032      -0.500317665416      171.94      4.71
5.00062507813      -0.532396943958      198.28      9.28
5.50068758595      -0.5669189732      217.14      2.69
6.00075009376      -0.604035868159      227.68      -0.31
6.50081260158      -0.643888030564      238.61      14.87
7.00087510939      -0.686594782797      258.99      -12.87
7.5009376172      -0.732242039654      277.49      -1.84
8.00100012502      -0.780866483517      302.71      41.88
8.50106263283      -0.832435794841      314.44      1.65
9.00112514064      -0.886824715065      343.40      -7.23
9.50118764846      -0.943787151072      348.29      -4.88
10.0012501563      -1.00292524366      364.63      -4.12
10.5013126641      -1.06365737697      389.27      5.91
11.0013751719      -1.12518850889      421.27      -2.70
11.5014376797      -1.18648784968      427.69      6.18
12.0015001875      -1.2462805218      448.41      -7.82
12.5015626953      -1.30306087687      469.90      -16.75
13.0016252032      -1.35513488897      514.63      26.77
13.501687711      -1.4006966932      525.73      5.14
14.0017502188      -1.43793939269      551.52      11.33
14.5018127266      -1.46519297678      556.22      25.15
15.0018752344      -1.48107398708      576.60      19.35
15.5019377422      -1.48462493699      580.46      -45.92
16.00200025      -1.47541927568      600.90      -7.28
16.5020627578      -1.4536117587      615.50      -4.45
17.0021252657      -1.41992411234      631.74      22.55
17.5021877735      -1.37556905169      651.04      12.57
18.0022502813      -1.32212781586      656.47      -5.71
18.5023127891      -1.26140369679      663.86      -8.11
19.0023752969      -1.19527494901      702.08      1.28
19.5024378047      -1.12556587709      722.93      -8.32
20.0025003125      -1.05394737058      757.00      14.69
20.5025628204      -0.981870516322      772.82      -18.60
21.0026253282      -0.910531132038      801.04      2.06
21.502687836      -0.840859835842      819.84      -3.89
22.0027503438      -0.773531264465      835.59      22.12
22.5028128516      -0.7089864426      846.59      2.16
23.0028753594      -0.647463254123      858.52      1.27
23.5029378672      -0.589030936964      862.16      -34.52
24.003000375      -0.533625332125      884.52      29.07
24.5030628829      -0.481082310018      899.41      -27.47
25.0031253907      -0.431167479451      915.77      -3.43
25.5031878985      -0.383601001064      920.76      -0.34
26.0032504063      -0.338077034819      934.67      35.40
26.5033129141      -0.294277962355      942.53      5.25
27.0033754219      -0.251883964626      969.99      -0.44
27.5034379297      -0.210578776663      977.36      1.99
28.0035004376      -0.170052506499      979.63      1.19
28.5035629454      -0.130002345699      994.53      22.70
29.0036254532      -0.0901318716837      1023.28      -24.40
29.503687961      -0.0501494945244      1042.14      70.11
30.0037504688      -0.0097664645719      1049.98      -16.95
30.5038129766      0.0313052513306      1057.50      24.37
31.0038754844      0.0733549924129      1072.27      -37.15
31.5039379922      0.116675134654      1073.75      -37.89
32.0040005001      0.161562350607      1079.83      60.23
32.5040630079      0.20831820398      1106.82      -58.81
33.0041255157      0.257248844217      1116.33      4.97
33.5041880235      0.308663502002      1126.57      8.23
34.0042505313      0.362871398243      1147.10      29.34
34.5043130391      0.420176566188      1168.94      2.84
35.0043755469      0.480869949271      1171.89      0.46
35.5044380548      0.545217978894      1174.69      10.47
36.0045005626      0.613446664892      1198.56      6.95
36.5045630704      0.685720064728      1222.84      15.13
37.0046255782      0.762111868445      1228.11      -27.28
37.504688086      0.842568801634      1235.76      -36.78
38.0047505938      0.926864697009      1257.28      3.87
38.5048131016      1.01454454788      1261.71      -10.16
39.0048756095      1.10485881218      1281.41      4.47
39.5049381173      1.19668990183      1286.25      4.74
40.0050006251      1.28847539387      1294.30      38.94
40.5050631329      1.37813618743      1298.14      -14.16
41.0051256407      1.46302254013      1310.59      11.12
41.5051881485      1.53989614677      1331.39      -0.28
42.0052506563      1.60497098606      1335.97      13.51
42.5053131641      1.65403749473      1343.98      -8.18
43.005375672      1.68269090542      1352.31      0.43
43.5054381798      1.68667238072      1352.92      -6.19
44.0055006876      1.66230930891      1362.49      8.48
44.5055631954      1.60701054958      1376.75      -7.64
45.0056257032      1.51974027365      1381.33      1.99
45.505688211      1.40137187109      1381.82      -8.70
46.0057507188      1.25482414883      1387.57      20.28
46.5058132267      1.08491378776      1401.80      -23.11
47.0058757345      0.89791761314      1407.88      -10.96
47.5059382423      0.700909243284      1424.82      -37.31
48.0060007501      0.500992681025      1456.98      4.63
48.5060632579      0.304578866166      1480.12      1.83
49.0061257657      0.116832066167      1490.70      -5.86
49.5061882735      -0.058639558351      1494.96      0.31
50.0062507813      -0.219839687024      1497.11      1.60
50.5063132892      -0.366231059499      1499.41      -18.28
51.006375797      -0.498449905894      1501.42      40.94
51.5064383048      -0.617967470493      1507.37      -14.61
52.0065008126      -0.726763340918      1510.57      0.13
52.5065633204      -0.827051429191      1549.59      -7.36
53.0066258282      -0.921076077423      1602.96      -25.20
53.506688336      -1.01097818157      1634.40      12.74
54.0067508439      -1.09872090144      1663.24      -15.96
54.5068133517      -1.18606041694      2209.61      -0.19
55.0068758595      -1.27454726695      2996.05      13.73
55.5069383673      -1.36554607812      3006.29      3.64
56.0070008751      -1.46026448947      3018.26      -0.57
56.5070633829      -1.55978492975      3030.92      3.77
57.0071258907      -1.66509520916      3045.37      -39.47
57.5071883985      -1.77711554497      3051.54      5.09
58.0072509064      -1.89672070833      3061.82      -29.10
58.5073134142      -2.02475657392      3061.94      61.28
59.007375922      -2.16205059461      3062.32      -16.24
59.5074384298      -2.30941571301      3073.72      18.94
60.0075009376      -2.46764703928      3075.00      19.16
60.5075634454      -2.63751032824      3089.09      -45.39
61.0076259532      -2.81972093023      3096.33      32.81
61.5076884611      -3.01491151814      3117.41      2.28
62.0077509689      -3.22358657791      3132.15      -1.89
62.5078134767      -3.44606148975      3135.75      -1.28
63.0078759845      -3.68238417063      3172.23      4.58
63.5079384923      -3.93223790636      3192.47      0.12
64.0080010001      -4.19482545159      3213.22      -0.55
64.5080635079      -4.46873704224      3231.69      1.07
65.0081260158      -4.75180895721      3470.45      -1.05
65.5081885236      -5.0409848417      3802.88      -3.02
66.0082510314       -5.33219894666
66.5083135392       -5.62030785746
67.008376047       -5.89910332218
67.5084385548       -6.16144053245
68.0085010626       -6.39951009672
68.5085635704       -6.6052649531
69.0086260783       -6.77098505551
69.5086885861       -6.88992681303
70.0087510939       -6.95697025594
70.5088136017       -6.96915737043
71.0088761095       -6.92602094643
71.5089386173       -6.82963780822
72.0090011251       -6.68439541238
72.509063633       -6.49651946028
73.0091261408       -6.27345372741
73.5091886486       -6.02319985419
74.0092511564       -5.7537136085
74.5093136642       -5.47242389698
75.009376172       -5.1859042958
75.5094386798       -4.89969499917
76.0095011876       -4.61825179048
76.5095636955       -4.34498882968
77.0096262033       -4.08238135103
77.5096887111       -3.83209923024
78.0097512189       -3.59514957648
78.5098137267       -3.37201378132
79.0098762345       -3.1627706003
79.5099387423       -2.96720142834
80.0100012502       -2.78487701091
80.510063758       -2.61522668403
81.0101262658       -2.45759218707
81.5101887736       -2.31126844449
82.0102512814       -2.17553369891
82.5103137892       -2.04967116864
83.010376297       -1.93298410553
83.5104388049       -1.82480581326
84.0105013127       -1.72450588743
84.5105638205       -1.63149367532
85.0106263283       -1.54521973102
85.5106888361       -1.46517585991
86.0107513439       -1.39089420068
86.5108138517       -1.32194567938
87.0108763595       -1.2579380813
87.5109388674       -1.1985139188
88.0110013752       -1.14334822223
88.511063883       -1.0921463424
89.0111263908       -1.04464182476
89.5111888986       -1.00059439398
90.0112514064       -0.959788072429
90.5113139142       -0.922029444457
91.0113764221       -0.887146069978
91.5114389299       -0.854985044549
92.0115014377       -0.82541169806
92.5115639455       -0.798308419813
93.0116264533       -0.773573593629
93.5116889611       -0.751120622173
94.0117514689       -0.730877014432
94.5118139767       -0.71278350377
95.0118764846       -0.696793155715
95.5119389924       -0.682870414001
96.0120015002       -0.670990019955
96.512064008       -0.661135723524
97.0121265158       -0.653298683844
97.5121890236       -0.647475433248
98.0122515314       -0.643665251942
98.5123140393       -0.641866773167
99.0123765471       -0.642073614648
99.5124390549       -0.64426881865
100.012501563       -0.648417891312
100.512564071       -0.65446027902
101.012626578       -0.662299228206
101.512689086       -0.671790173304
102.012751594       -0.682728114096
102.512814102       -0.694834898258
103.01287661       -0.707747910417
103.512939117       -0.721012327102
104.013001625       -0.734079690226
104.513064133       -0.746315848402
105.013126641       -0.757021009544
105.513189149       -0.765463443375
106.013251656       -0.770926136756
106.513314164       -0.772762659271
107.013376672       -0.770455331814
107.51343918       -0.76366657347
108.013501688       -0.752274101357
108.513564196       -0.736383004874
109.013626703       -0.716312192498
109.513689211       -0.692557987848
110.013751719       -0.665742041176
110.513814227       -0.636552933598
111.013876735       -0.605690521661
111.513939242       -0.573819772047
112.01400175       -0.541537652893
112.514064258       -0.509353632995
113.014126766       -0.477682158017
113.514189274       -0.446844321869
114.014251781       -0.417075686076
114.514314289       -0.388537519714
115.014376797       -0.361329334198
115.514439305       -0.335501243842
116.014501813       -0.311065262324
116.514564321       -0.288005091914
117.014626828       -0.266284271658
117.514689336       -0.245852743108
118.014751844       -0.226651996542
118.514814352       -0.208619004732
119.01487686       -0.191689157658
119.514939367       -0.175798396788
120.015001875       -0.160884722637
120.515064383       -0.146889221223
121.015126891       -0.133756727664
121.515189399       -0.121436220539
122.015251906       -0.109881019365
122.515314414       -0.099048839805
123.015376922       -0.0889017465348
123.51543943       -0.0794060316606
124.015501938       -0.0705320365246
124.515564446       -0.0622539261621
125.015626953       -0.0545494180021
125.515689461       -0.0473994591549
126.015751969       -0.0407878393353
126.515814477       -0.0347007187283
127.015876985       -0.0291260415738
127.515939492       -0.0240527967064
128.016002       -0.0194700757096
128.516064508       -0.0153658680387
129.016127016       -0.0117255213106
129.516189524       -0.00852978567596
130.016252032       -0.00575235684246
130.516314539       -0.00335683774393
131.016377047       -0.00129306122455
131.516439555       0.00050723484183
132.016502063       0.00213530098841
132.516564571       0.00371062083323
133.016627078       0.00538609230695
133.516689586       0.00735247703161
134.016752094       0.00984116363053
134.516814602       0.0131240297696
135.01687711       0.0175090474921
135.516939617       0.0233303828531
136.017002125       0.0309322149203
136.517064633       0.0406463922847
137.017127141       0.0527652621256
137.517189649       0.0675122602617
138.017252157       0.0850137037588
138.517314664       0.105275253029
139.017377172       0.128165515699
139.51743968       0.153407460376
140.017502188       0.180576287946
140.517564696       0.209100915474
141.017627203       0.238265837724
141.517689711       0.267211022932
142.017752219       0.294929432607
142.517814727       0.320264209262
143.017877235       0.341909923809
143.517939742       0.358423891697
144.01800225       0.368253875129
144.518064758       0.369787014275
145.018127266       0.361421363408
145.518189774       0.341656264302
146.018252282       0.309192036464
146.518314789       0.263024871043
147.018377297       0.202521341654
147.518439805       0.127459850277
148.018502313       0.0380333457457
148.518564821       -0.0651831788148
149.018627328       -0.181288517315
149.518689836       -0.309117522972
150.018752344       -0.447292528481
150.518814852       -0.594250336147
151.01887736       -0.748237473752
151.518939867       -0.907273513272
152.019002375       -1.06908897136
152.519064883       -1.2310501439
153.019127391       -1.39008807995
153.519189899       -1.5426526075
154.019252407       -1.68471420904
154.519314914       -1.81183527067
155.019377422       -1.91932607903
155.51943993       -2.00248864732
156.019502438       -2.05693339684
156.519564946       -2.0789329997
157.019627453       -2.06576019563
157.519689961       -2.01594919757
158.019752469       -1.92942849633
158.519814977       -1.80749640266
159.019877485       -1.65264322259
159.519939992       -1.46825524794
160.0200025       -1.25825605025
160.520065008       -1.02674502499
161.020127516       -0.777683156564
161.520190024       -0.514657499209
162.020252532       -0.240735972947
162.520315039       0.0415919014115
163.020377547       0.330402368482
163.520440055       0.624270505915
164.020502563       0.922165738548
164.520565071       1.22332335503
165.020627578       1.52710184847
165.520690086       1.83283287275
166.020752594       2.13966901931
166.520815102       2.44643482387
167.02087761       2.75148845856
167.520940118       3.05260518945
168.021002625       3.34689819334
168.521065133       3.63079645472
169.021127641       3.90010125786
169.521190149       4.15013984079
170.021252657       4.3760249059
170.521315164       4.57301114678
171.021377672       4.73691683927
171.52144018       4.86455548174
172.021502688       4.95410763682
172.521565196       5.00536421758
173.021627703       5.0197926058
173.521690211       5.00041203467
174.021752719       4.95150400729
174.521815227       4.87821459557
175.021877735       4.78611942215
175.521940243       4.68081730081
176.02200275       4.56759993589
176.522065258       4.45122104678
177.022127766       4.33576638555
177.522190274       4.2246108401
178.022252782       4.12044122028
178.522315289       4.02532207986
179.022377797       3.94078473025
179.522440305       3.86792423888
180.022502813       3.8074940772
180.522565321       3.7599922881
181.022627828       3.72573623231
181.522690336       3.70492514654
182.022752844       3.69769106808
182.522815352       3.70413936966
183.02287786       3.72438040496
183.522940368       3.75855375007
184.023002875       3.8068463547
184.523065383       3.86950566237
185.023127891       3.94684846577
185.523190399       4.03926595358
186.023252907       4.14722508447
186.523315414       4.27126609145
187.023377922       4.41199556797
187.52344043       4.5700742077
188.023502938       4.74619785841
188.523565446       4.94107010734
189.023627953       5.15536415861
189.523690461       5.38967133056
190.023752969       5.64443316971
190.523815477       5.91985407754
191.023877985       6.21579167708
191.523940493       6.53162319697
192.024003       6.86608829617
192.524065508       7.21711242093
193.024128016       7.58162036225
193.524190524       7.9553573137
194.024253032       8.332744013
194.524315539       8.70680213343
195.024378047       9.06919331222
195.524440555       9.41041605734
196.024503063       9.72019460006
196.524565571       9.98806897409
197.024628079       10.2041563396
197.524690586       10.3600062174
198.024753094       10.4494300074
198.524815602       10.4691645836
199.02487811       10.4192439486
199.524940618       10.3030037079
200.025003125       10.1267175328
200.525065633       9.89893946839
201.025128141       9.6296773804
201.525190649       9.32953782222
202.025253157       9.00896262939
202.525315664       8.67763552943
203.025378172       8.34408963691
203.52544068       8.01550716286
204.025503188       7.69767753334
204.525565696       7.39506962749
205.025628204       7.11097447383
205.525690711       6.84768182067
206.025753219       6.6066634936
206.525815727       6.38874567664
207.025878235       6.19425982818
207.525940743       6.02316745214
208.02600325       5.87515753572
208.526065758       5.74971753528
209.026128266       5.64617979753
209.526190774       5.56374566564
210.026253282       5.50148959558
210.526315789       5.45834569269
211.026378297       5.43307942025
211.526440805       5.42424803449
212.026503313       5.43015470719
212.526565821       5.44880333483
213.026628329       5.47786352604
213.526690836       5.51465771255
214.026753344       5.55618385076
214.526815852       5.59918651566
215.02687836       5.64028500306
215.526940868       5.67615852658
216.027003375       5.70377621177
216.527065883       5.72064578155
217.027128391       5.72504384472
217.527190899       5.71618730833
218.027253407       5.69431269591
218.527315914       5.66064737859
219.027378422       5.61727907899
219.52744093       5.56695034995
220.027503438       5.51281683462
220.527565946       5.4582093289
221.027628454       5.40643153519
221.527690961       5.36061220006
222.027753469       5.32361677216
222.527815977       5.2980131221
223.027878485       5.28607955253
223.527940993       5.289840984
224.0280035       5.3111196923
224.528066008       5.35158905223
225.028128516       5.4128214801
225.528191024       5.49632464382
226.028253532       5.60356281113
226.52831604       5.73596281497
227.028378547       5.89490632637
227.528441055       6.08171156998
228.028503563       6.29760785602
228.528566071       6.54370506178
229.028628579       6.82095760661
229.528691086       7.13011914782
230.028753594       7.47168111325
230.528816102       7.84578619024
231.02887861       8.25210760985
231.528941118       8.68968673121
232.029003625       9.15672507636
232.529066133       9.65033268635
233.029128641       10.1662427464
233.529191149       10.6985132216
234.029253657       11.2392497685
234.529316165       11.7783994766
235.029378672       12.3036793431
235.52944118       12.8007118707
236.029503688       13.2534358846
236.529566196       13.6448363635
237.029628704       13.9579885897
237.529691211       14.1773426064
238.029753719       14.2900979959
238.529816227       14.2874603547
239.029878735       14.1655556673
239.529941243       13.9258229298
240.03000375       13.5748034901
240.530066258       13.1233696561
241.030128766       12.5855455089
241.530191274       11.9771360833
242.030253782       11.3143840857
242.53031629       10.6128260446
243.030378797       9.88644652504
