#  x                 y             frequency           rot. str.
0.0      -0.030854108161      18.85      -1.54
0.500062507813      -0.034493999993      30.67      3.80
1.00012501563      -0.0385191791458      45.55      -0.17
1.50018752344      -0.0429687671608      66.31      -6.03
2.00025003125      -0.0478858536305      84.12      10.37
2.50031253907      -0.0533178405927      113.15      9.85
3.00037504688      -0.0593167893656      132.49      -8.41
3.50043755469      -0.0659397573091      142.95      0.03
4.00050006251      -0.0732491063509      147.90      -1.28
4.50056257032      -0.0813127575172      158.07      0.95
5.00062507813      -0.0902043555679      201.06      2.63
5.50068758595      -0.100003294438      209.71      10.62
6.00075009376      -0.110794536642      236.40      -0.09
6.50081260158      -0.12266813709      241.47      -5.73
7.00087510939      -0.135718352712      249.09      -2.63
7.5009376172      -0.150042182803      268.25      -43.88
8.00100012502      -0.165737139976      300.20      -47.55
8.50106263283      -0.182897997679      316.62      -2.75
9.00112514064      -0.201612197971      344.43      31.16
9.50118764846      -0.221953535409      366.44      -1.00
10.0012501563      -0.243973665673      382.26      6.51
10.5013126641      -0.26769093281      389.31      0.64
11.0013751719      -0.293075986659      416.16      -15.24
11.5014376797      -0.320033703445      436.08      -12.55
12.0015001875      -0.348381073144      454.58      10.11
12.5015626953      -0.377821036885      472.07      -11.29
13.0016252032      -0.407912817239      519.44      -5.08
13.501687711      -0.438040150978      532.58      15.40
14.0017502188      -0.46738004324      550.16      24.40
14.5018127266      -0.494876169319      552.65      -12.90
15.0018752344      -0.519222665786      564.88      0.53
15.5019377422      -0.538865378669      581.92      15.23
16.00200025      -0.552028046436      605.14      3.62
16.5020627578      -0.556769621292      614.88      -17.40
17.0021252657      -0.551075317588      642.56      6.61
17.5021877735      -0.53297789575      652.72      -19.43
18.0022502813      -0.500697993013      654.18      18.73
18.5023127891      -0.452784996033      658.87      -8.70
19.0023752969      -0.388235745915      702.67      -5.03
19.5024378047      -0.306569659788      731.25      -29.63
20.0025003125      -0.207846365044      775.00      6.48
20.5025628204      -0.0926239669355      780.24      -21.37
21.0026253282      0.0381310651217      798.88      8.33
21.502687836      0.183161754683      814.45      35.75
22.0027503438      0.341041762617      833.76      -56.83
22.5028128516      0.510277610577      844.55      27.00
23.0028753594      0.68937626979      853.75      5.10
23.5029378672      0.876870480729      860.82      -70.32
24.003000375      1.07130158851      868.95      5.86
24.5030628829      1.27116529659      885.40      -12.06
25.0031253907      1.47482952649      896.24      10.65
25.5031878985      1.68043617803      929.36      -35.56
26.0032504063      1.88580081045      941.26      4.59
26.5033129141      2.08832658921      949.65      -1.31
27.0033754219      2.28495111619      973.33      -0.48
27.5034379297      2.47214605472      982.79      3.23
28.0035004376      2.64598814891      988.33      0.01
28.5035629454      2.80231441426      990.76      16.97
29.0036254532      2.93696260142      1015.30      59.08
29.503687961      3.04608088433      1022.27      -67.74
30.0037504688      3.12647116279      1042.61      -51.51
30.5038129766      3.17591413669      1047.14      -30.87
31.0038754844      3.19341816636      1061.02      27.46
31.5039379922      3.1793425963      1065.62      -14.00
32.0040005001      3.1353693556      1082.86      -22.29
32.5040630079      3.06432797273      1111.40      28.03
33.0041255157      2.96990871953      1123.98      35.39
33.5041880235      2.85631728429      1132.02      22.11
34.0042505313      2.72792779464      1152.76      -21.61
34.5043130391      2.58898078702      1161.64      21.12
35.0043755469      2.44335466435      1173.62      -3.39
35.5044380548      2.29442004652      1182.67      -9.97
36.0045005626      2.14497119599      1209.55      -1.33
36.5045630704      1.99721955948      1227.55      12.35
37.0046255782      1.85283114559      1231.04      65.07
37.504688086      1.71299035385      1239.62      -38.21
38.0047505938      1.57847607875      1251.46      43.92
38.5048131016      1.44973986682      1260.71      10.68
39.0048756095      1.32697960032      1270.85      36.62
39.5049381173      1.21020512948      1276.74      -68.68
40.0050006251      1.09929434926      1285.01      14.09
40.5050631329      0.994039493678      1296.28      0.21
41.0051256407      0.894184066526      1327.42      1.36
41.5051881485      0.799451029521      1333.64      3.14
42.0052506563      0.709562811163      1336.34      -11.30
42.5053131641      0.624253553696      1347.35      8.25
43.005375672      0.543273940912      1353.07      0.46
43.5054381798      0.466389077921      1356.26      -7.20
44.0055006876      0.393370298439      1363.40      39.76
44.5055631954      0.323982424789      1376.40      -20.08
45.0056257032      0.25796873598      1379.41      6.04
45.505688211      0.195036431849      1383.21      22.04
46.0057507188      0.134845419457      1388.73      -4.10
46.5058132267      0.0770026222939      1402.09      -12.47
47.0058757345      0.0210628013051      1421.18      -55.75
47.5059382423      -0.0334645879942      1432.89      56.13
48.0060007501      -0.0871042428716      1468.13      7.55
48.5060632579      -0.140402002699      1478.50      3.65
49.0061257657      -0.193912418559      1491.56      -0.82
49.5061882735      -0.24818877685      1492.06      -1.61
50.0062507813      -0.303776604962      1499.17      6.74
50.5063132892      -0.361210852101      1503.96      0.02
51.006375797      -0.42101630745      1507.69      23.66
51.5064383048      -0.483710457295      1509.96      0.08
52.0065008126      -0.549807859816      1514.98      -15.64
52.5065633204      -0.619825150294      1544.55      11.18
53.0066258282      -0.694285894575      1608.49      -0.49
53.506688336      -0.773724617357      1633.95      -13.41
54.0067508439      -0.858689401751      1662.65      23.24
54.5068133517      -0.949742466133      2209.08      6.73
55.0068758595      -1.04745806677      3008.32      -0.95
55.5069383673      -1.15241695114      3019.48      12.73
56.0070008751      -1.26519640334      3022.66      -4.19
56.5070633829      -1.38635469066      3029.90      1.51
57.0071258907      -1.51640845606      3042.15      41.54
57.5071883985      -1.65580133699      3054.03      15.61
58.0072509064      -1.80486187684      3061.14      -30.90
58.5073134142      -1.96374871631      3062.87      -9.22
59.007375922      -2.13238123541      3064.57      0.79
59.5074384298      -2.31035444594      3072.88      -22.36
60.0075009376      -2.49683824918      3073.94      32.47
60.5075634454      -2.69046345134      3086.25      14.59
61.0076259532      -2.88920042783      3101.44      18.71
61.5076884611      -3.09024116328      3112.69      -1.06
62.0077509689      -3.28990135028      3135.00      -0.33
62.5078134767      -3.48356549495      3138.39      -2.17
63.0078759845      -3.66570290828      3187.09      0.02
63.5079384923      -3.82998352761      3202.91      -0.15
64.0080010001      -3.96951668757      3218.40      -3.55
64.5080635079      -4.07722078343      3237.84      -0.06
65.0081260158      -4.14630702887      3471.26      -6.74
65.5081885236      -4.17082993156      3784.25      5.11
66.0082510314       -4.14622887872
66.5083135392       -4.06977010875
67.008376047       -3.94080528505
67.5084385548       -3.76079389024
68.0085010626       -3.53308418079
68.5085635704       -3.26249667622
69.0086260783       -2.95478952268
69.5086885861       -2.61609716133
70.0087510939       -2.25242265593
70.5088136017       -1.86923768721
71.0088761095       -1.47121342487
71.5089386173       -1.06207921316
72.0090011251       -0.644588930697
72.509063633       -0.220567499165
73.0091261408       0.208989822859
73.5091886486       0.643788027773
74.0092511564       1.08408894918
74.5093136642       1.53056342206
75.009376172       1.98414301497
75.5094386798       2.44587113385
76.0095011876       2.91675049413
76.5095636955       3.39758248137
77.0096262033       3.88879374548
77.5096887111       4.39024660041
78.0097512189       4.90103268111
78.5098137267       5.41925418452
79.0098762345       5.94180418269
79.5099387423       6.46416691665
80.0100012502       6.98026991872
80.510063758       7.48243034968
81.0101262658       7.96144463671
81.5101887736       8.40686854516
82.0102512814       8.80751909969
82.5103137892       9.15219717002
83.010376297       9.43058200777
83.5104388049       9.63419600728
84.0105013127       9.7572958989
84.5105638205       9.79753384748
85.0106263283       9.75626024922
85.5106888361       9.63840665176
86.0107513439       9.45197343776
86.5108138517       9.20722519281
87.0108763595       8.91574310793
87.5109388674       8.58948826551
88.0110013752       8.23999831608
88.511063883       7.87778948118
89.0111263908       7.51198418942
89.5111888986       7.15014478253
90.0112514064       6.79827066705
90.5113139142       6.46090874641
91.0113764221       6.14133035669
91.5114389299       5.84173709763
92.0115014377       5.56346879689
92.5115639455       5.30719681791
93.0116264533       5.07309384215
93.5116889611       4.86097688216
94.0117514689       4.67042387841
94.5118139767       4.50086626025
95.0118764846       4.3516607789
95.5119389924       4.22214414496
96.0120015002       4.11167381789
96.512064008       4.01965790403
97.0121265158       3.94557664962
97.5121890236       3.88899754013
98.0122515314       3.84958557488
98.5123140393       3.82710988886
99.0123765471       3.8214475442
99.5124390549       3.83258500187
100.012501563       3.86061749976
100.512564071       3.90574629108
101.012626578       3.96827342303
101.512689086       4.04859344539
102.012751594       4.14718111918
102.512814102       4.26457383615
103.01287661       4.40134705689
103.512939117       4.5580806336
104.013001625       4.73531342679
104.513064133       4.93348320396
105.013126641       5.15284851658
105.513189149       5.39338924414
106.013251656       5.65468300602
106.513314164       5.93575600216
107.013376672       6.23490947017
107.51343918       6.54952729576
108.013501688       6.87587675733
108.513564196       7.20892297555
109.013626703       7.54218774708
109.513689211       7.86769332923
110.013751719       8.17603822532
110.513814227       8.45665057975
111.013876735       8.69825053812
111.513939242       8.88952272553
112.01400175       9.01995537105
112.514064258       9.08075212826
113.014126766       9.06568164678
113.514189274       8.9717159826
114.014251781       8.79933368224
114.514314289       8.55242505994
115.014376797       8.23781871821
115.514439305       7.86452376178
116.014501813       7.44282823556
116.514564321       6.98340067875
117.014626828       6.4965133876
117.514689336       5.99145847931
118.014751844       5.47617853266
118.514814352       4.95709498718
119.01487686       4.43909479142
119.514939367       3.9256280325
120.015001875       3.41887219115
120.515064383       2.9199273428
121.015126891       2.42901710382
121.515189399       1.94567990883
122.015251906       1.46894312315
122.515314414       0.99747827893
123.015376922       0.529739595881
123.51543943       0.0640903142559
124.015501938       -0.401077378657
124.515564446       -0.86722262164
125.015626953       -1.33553041556
125.515689461       -1.80677548113
126.015751969       -2.28117240024
126.515814477       -2.75821211433
127.015876985       -3.23648951699
127.515939492       -3.71353333294
128.016002       -4.18565761277
128.516064508       -4.64786319089
129.016127016       -5.0938254951
129.516189524       -5.51600904028
130.016252032       -5.90594469511
130.516314539       -6.25468945444
131.016377047       -6.55345831861
131.516439555       -6.79437708366
132.016502063       -6.97126276797
132.516564571       -7.0803093611
133.016627078       -7.12055476575
133.516689586       -7.09403701682
134.016752094       -7.00560817319
134.516814602       -6.86244471347
135.01687711       -6.67335126465
135.516939617       -6.44798310407
136.017002125       -6.19610761522
136.517064633       -5.92699366085
137.017127141       -5.64897519064
137.517189649       -5.36919529482
138.017252157       -5.09350806427
138.517314664       -4.8265005173
139.017377172       -4.57159348252
139.51743968       -4.33118466882
140.017502188       -4.1068052042
140.517564696       -3.8992697287
141.017627203       -3.70880799756
141.517689711       -3.53517222992
142.017752219       -3.37771911897
142.517814727       -3.23546880169
143.017877235       -3.1071455364
143.517939742       -2.99120664383
144.01800225       -2.88586756204
144.518064758       -2.78913157361
145.018127266       -2.69883258901
145.518189774       -2.61269784823
146.018252282       -2.52843408109
146.518314789       -2.4438354354
147.018377297       -2.35690496133
147.518439805       -2.26597517583
148.018502313       -2.16980942002
148.518564821       -2.06766636386
149.018627328       -1.95931581049
149.518689836       -1.84500362205
150.018752344       -1.72537415564
150.518814852       -1.60136666549
151.01887736       -1.47410539666
151.518939867       -1.34480123438
152.019002375       -1.21467721155
152.519064883       -1.08492314233
153.019127391       -0.956678123204
153.519189899       -0.831034773172
154.019252407       -0.709056171607
154.519314914       -0.59179529098
155.019377422       -0.480307009785
155.51943993       -0.375644387402
156.019502438       -0.278833826202
156.519564946       -0.190828050996
157.019627453       -0.112441164456
157.519689961       -0.0442754433679
158.019752469       0.0133464868017
158.519814977       0.0604295190142
159.019877485       0.0973223738522
159.519939992       0.124697177951
160.0200025       0.143495120898
160.520065008       0.154847972569
161.020127516       0.159989114773
161.520190024       0.160167762396
162.020252532       0.156576926569
162.520315039       0.150300986156
163.020377547       0.142284116697
163.520440055       0.133317371378
164.020502563       0.12404029973
164.520565071       0.114952458422
165.020627578       0.106430577463
165.520690086       0.0987480294559
166.020752594       0.0920942499815
166.520815102       0.0865926572082
167.02087761       0.0823163231869
167.520940118       0.0793011435919
168.021002625       0.0775565648574
168.521065133       0.0770741008623
169.021127641       0.0778339482613
169.521190149       0.0798100255679
170.021252657       0.0829737422903
170.521315164       0.0872967685559
171.021377672       0.0927530339293
171.52144018       0.0993201429833
172.021502688       0.106980357957
172.521565196       0.115721266886
173.021627703       0.125536229149
173.521690211       0.136424669036
174.021752719       0.148392271119
174.521815227       0.161451118119
175.021877735       0.175619801935
175.521940243       0.190923530955
176.02200275       0.207394251137
176.522065258       0.225070794218
177.022127766       0.243999063464
177.522190274       0.264232265288
178.022252782       0.28583119368
178.522315289       0.308864573514
179.022377797       0.333409468284
179.522440305       0.359551757602
180.022502813       0.387386689774
180.522565321       0.41701951483
181.022627828       0.448566203539
181.522690336       0.482154258065
182.022752844       0.517923619929
182.522815352       0.5560276808
183.02287786       0.59663440117
183.522940368       0.639927541064
184.023002875       0.686108005407
184.523065383       0.73539530421
185.023127891       0.788029124107
185.523190399       0.844271002439
186.023252907       0.904406087542
186.523315414       0.968744958391
187.023377922       1.03762546234
187.52344043       1.11141451028
188.023502938       1.19050974239
188.523565446       1.27534094383
189.023627953       1.36637104472
189.523690461       1.46409648263
190.023752969       1.56904663418
190.523815477       1.68178193581
191.023877985       1.80289021067
191.523940493       1.93298060269
192.024003       2.07267439708
192.524065508       2.22259189413
193.024128016       2.38333442818
193.524190524       2.55546062918
194.024253032       2.73945617801
194.524315539       2.93569669846
195.024378047       3.14440417224
195.524440555       3.36559847475
196.024503063       3.59904739424
196.524565571       3.84422079398
197.024628079       4.10025718318
197.524690586       4.36595333217
198.024753094       4.63978876242
198.524815602       4.91999569847
199.02487811       5.20468011298
199.524940618       5.49199017761
200.025003125       5.78031550726
200.525065633       6.06848677296
201.025128141       6.35593496244
201.525190649       6.64276744316
202.025253157       6.92972671947
202.525315664       7.21801628698
203.025378172       7.50900137225
203.52544068       7.80381399411
204.025503188       8.10290652006
204.525565696       8.40560420902
205.025628204       8.70970730615
205.525690711       9.01119091536
206.025753219       9.30404887205
206.525815727       9.58032586302
207.025878235       9.8303763289
207.525940743       10.0433734253
208.02600325       10.2080615933
208.526065758       10.3137018418
209.026128266       10.3511071521
209.526190774       10.3136218572
210.026253282       10.1978821964
210.526315789       10.0042190793
211.026378297       9.73662818642
211.526440805       9.40231999275
212.026503313       9.01094565908
212.526565821       8.57364822845
213.026628329       8.10209946776
213.526690836       7.60765503078
214.026753344       7.100710397
214.526815852       6.59028619849
215.02687836       6.08382830419
215.526940868       5.58718172485
216.027003375       5.10468749493
216.527065883       4.63935377986
217.027128391       4.19306122112
217.527190899       3.7667735521
218.027253407       3.36073494061
218.527315914       2.97464395022
219.027378422       2.60780009876
219.52744093       2.25922294582
220.027503438       1.92774591749
220.527565946       1.61208816344
221.027628454       1.31090805679
221.527690961       1.02284180971
222.027753469       0.746530308029
222.527815977       0.480636807433
223.027878485       0.223857667374
223.527940993       -0.0250721297296
224.0280035       -0.267377296178
224.528066008       -0.504243321668
225.028128516       -0.73681949339
225.528191024       -0.966223214864
226.028253532       -1.19354512514
226.52831604       -1.41985461868
227.028378547       -1.64620542866
227.528441055       -1.87364096741
228.028503563       -2.10319911997
228.528566071       -2.33591616254
229.028628579       -2.57282942838
229.528691086       -2.81497826964
230.028753594       -3.06340276705
230.528816102       -3.31913952003
231.02887861       -3.58321371238
231.528941118       -3.85662649586
232.029003625       -4.14033657299
232.529066133       -4.43523470097
233.029128641       -4.74210969686
233.529191149       -5.06160443221
234.029253657       -5.39416032541
234.529316165       -5.73994909011
235.029378672       -6.09879118232
235.52944118       -6.47006180838
236.029503688       -6.85258788359
236.529566196       -7.2445432858
237.029628704       -7.64335517443
237.529691211       -8.04564050024
238.029753719       -8.44719769251
238.529816227       -8.84308147973
239.029878735       -9.2277858235
239.529941243       -9.59554824223
240.03000375       -9.9407673902
240.530066258       -10.2584971463
241.030128766       -10.5449515169
241.530191274       -10.7979354382
242.030253782       -11.0171167048
242.53031629       -11.2040779917
243.030378797       -11.3621306979
243.530441305       -11.4959215451
244.030503813       -11.6109032257
244.530566321       -11.7127608072
