#  x                 y             frequency           intensity
0.0       1.29304059103e-09       52.69       3.39762
0.500062507813       1.94786707325e-09       159.95       6.51293
1.00012501563       2.92287058881e-09       218.14       31.43516
1.50018752344       4.3688081239e-09       228.67       6.75041
2.00025003125       6.50458312299e-09       320.07       0.62266
2.50031253907       9.64670677665e-09       328.66       0.94707
3.00037504688       1.42508838571e-08       411.07       6.27397
3.50043755469       2.09704445183e-08       437.32       123.10013
4.00050006251       3.07380692911e-08       525.95       20.99001
4.50056257032       4.48795658504e-08       581.09       85.35904
5.00062507813       6.52715343449e-08       625.24       26.00179
5.50068758595       9.45588342766e-08       732.82       32.02103
6.00075009376       1.36453132586e-07       796.72       70.81849
6.50081260158       1.96140836907e-07       831.18       118.23838
7.00087510939       2.80837857237e-07       972.97       6.22490
7.5009376172       4.0054045834e-07       1056.48       5.35480
8.00100012502       5.69036655483e-07       1073.90       76.60534
8.50106263283       8.05262006312e-07       1116.61       94.11140
9.00112514064       1.13510826906e-06       1153.49       247.45086
9.50118764846       1.59382442893e-06       1204.49       5.28209
10.0012501563       2.22918844742e-06       1234.33       10.79381
10.5013126641       3.10567639592e-06       1302.28       5.15722
11.0013751719       4.3099152658e-06       1316.09       11.75484
11.5014376797       5.95777881013e-06       1378.52       0.25519
12.0015001875       8.20357460515e-06       1416.07       40.54705
12.5015626953       1.12518776616e-05       1431.59       31.52941
13.0016252032       1.5372694058e-05       1504.93       1.58235
13.501687711       2.09207899757e-05       1641.58       70.77627
14.0017502188       2.83601999266e-05       1816.11       286.62596
14.5018127266       3.82951354165e-05       2947.32       21.86595
15.0018752344       5.1508753959e-05       3008.57       50.44045
15.5019377422       6.90115197651e-05       3094.06       23.70665
16.00200025       9.21011922e-05       3510.01       7.39844
16.5020627578       0.0001224368155       3595.24       15.49054
17.0021252657       0.000162129450875       3722.48       80.76361
17.5021877735       0.000213852785356       3787.63       50.72124
18.0022502813       0.000280977163245
18.5023127891       0.000367731005193
19.0023752969       0.000479393992333
19.5024378047       0.000622526779747
20.0025003125       0.000805242341251
20.5025628204       0.0010375243072
21.0026253282       0.00133159780463
21.502687836       0.00170235830482
22.0027503438       0.00216786378312
22.5028128516       0.00274989504988
23.0028753594       0.00347458836837
23.5029378672       0.00437314338105
24.003000375       0.00548260786638
24.5030628829       0.0068467388946
25.0031253907       0.00851693749888
25.5031878985       0.0105532509945
26.0032504063       0.0130254335452
26.5033129141       0.0160140514918
27.0033754219       0.0196116153516
27.5034379297       0.0239237153151
28.0035004376       0.0290701316036
28.5035629454       0.0351858853239
29.0036254532       0.0424221896314
29.503687961       0.050947255292
30.0037504688       0.0609468993583
30.5038129766       0.0726249009375
31.0038754844       0.0862030442178
31.5039379922       0.101920786406
32.0040005001       0.120034487325
32.5040630079       0.140816138514
33.0041255157       0.164551533049
33.5041880235       0.191537823312
34.0042505313       0.222080422784
34.5043130391       0.25648921976
35.0043755469       0.295074085822
35.5044380548       0.338139679857
36.0045005626       0.385979569123
36.5045630704       0.438869712156
37.0046255782       0.497061373544
37.504688086       0.560773567163
38.0047505938       0.630185151618
38.5048131016       0.705426728347
39.0048756095       0.78657251814
39.5049381173       0.873632414522
40.0050006251       0.966544431434
40.5050631329       1.06516777671
41.0051256407       1.16927679097
41.5051881485       1.27855599257
42.0052506563       1.39259646285
42.5053131641       1.51089379067
43.005375672       1.63284777204
43.5054381798       1.75776402821
44.0055006876       1.88485766564
44.5055631954       2.01325905348
45.0056257032       2.14202174008
45.505688211       2.27013247186
46.0057507188       2.39652321526
46.5058132267       2.52008502053
47.0058757345       2.63968350382
47.5059382423       2.75417566618
48.0060007501       2.8624277157
48.5060632579       2.96333351441
49.0061257657       3.05583323701
49.5061882735       3.1389318059
50.0062507813       3.21171665652
50.5063132892       3.27337439113
51.006375797       3.32320589677
51.5064383048       3.36063953495
52.0065008126       3.38524205517
52.5065633204       3.39672694108
53.0066258282       3.39495996439
53.506688336       3.37996179617
54.0067508439       3.35190760425
54.5068133517       3.31112364803
55.0068758595       3.25808096286
55.5069383673       3.19338630527
56.0070008751       3.11777060223
56.5070633829       3.03207521177
57.0071258907       2.93723635616
57.5071883985       2.83426812953
58.0072509064       2.72424451064
58.5073134142       2.60828082488
59.007375922       2.48751510008
59.5074384298       2.36308974694
60.0075009376       2.23613396877
60.5075634454       2.10774726797
61.0076259532       1.97898436979
61.5076884611       1.8508418298
62.0077509689       1.72424653223
62.5078134767       1.600046224
63.0078759845       1.47900216679
63.5079384923       1.36178392797
64.0080010001       1.24896627402
64.5080635079       1.14102807717
65.0081260158       1.03835310076
65.5081885236       0.941232490195
66.0082510314       0.849868766904
66.5083135392       0.764381101234
67.008376047       0.684811627689
67.5084385548       0.611132561309
68.0085010626       0.543253877152
68.5085635704       0.481031324555
69.0086260783       0.424274563374
69.5086885861       0.372755229489
70.0087510939       0.326214760341
70.5088136017       0.284371837075
71.0088761095       0.246929326776
71.5089386173       0.213580635356
72.0090011251       0.184015407965
72.509063633       0.157924538548
73.0091261408       0.135004472812
73.5091886486       0.1149608089
74.0092511564       0.0975112172042
74.5093136642       0.0823877148702
75.009376172       0.0693383415596
75.5094386798       0.0581282911215
76.0095011876       0.0485405590868
76.5095636955       0.0403761686533
77.0096262033       0.0334540383471
77.5096887111       0.0276105531863
78.0097512189       0.0226988982718
78.5098137267       0.0185882096482
79.0098762345       0.0151625923346
79.5099387423       0.0123200499348
80.0100012502       0.00997136446648
80.510063758       0.00803895922887
81.0101262658       0.00645577186054
81.5101887736       0.0051641593641
82.0102512814       0.0041148519144
82.5103137892       0.00326596779415
83.010376297       0.00258209786285
83.5104388049       0.00203346457808
84.0105013127       0.00159515774916
84.5105638205       0.00124644688718
85.0106263283       0.000970168187478
85.5106888361       0.000752182794347
86.0107513439       0.000580902002154
86.5108138517       0.000446874388262
87.0108763595       0.000342429497797
87.5109388674       0.00026137255676
88.0110013752       0.000198724730381
88.511063883       0.000150503624751
89.0111263908       0.000113539013346
89.5111888986       8.53191234775e-05
90.0112514064       6.38632134254e-05
90.5113139142       4.76165868986e-05
91.0113764221       3.53646098022e-05
91.5114389299       2.61627018355e-05
92.0115014377       1.92796624483e-05
92.5115639455       1.41520506125e-05
93.0116264533       1.03476667407e-05
93.5116889611       7.5364809652e-06
94.0117514689       5.46761458314e-06
94.5118139767       3.95121164802e-06
95.0118764846       2.84423717354e-06
95.5119389924       2.03940950796e-06
96.0120015002       1.45661974461e-06
96.512064008       1.03631331424e-06
97.0121265158       7.34410912253e-07
97.5121890236       5.18430306454e-07
98.0122515314       3.64539837575e-07
98.5123140393       2.55330843095e-07
99.0123765471       1.78141851674e-07
99.5124390549       1.23804015874e-07
100.012501563       8.57064468758e-08
100.512564071       5.91032356776e-08
101.012626578       4.06021357461e-08
101.512689086       2.77891029002e-08
102.012751594       1.89539373327e-08
102.512814102       1.28908067557e-08
103.01287661       8.7539842846e-09
103.512939117       5.95414331473e-09
104.013001625       4.08436266038e-09
104.513064133       2.86788702998e-09
105.013126641       2.12188227816e-09
105.513189149       1.73309846057e-09
106.013251656       1.64264805355e-09
106.513314164       1.83813687039e-09
107.013376672       2.35224745148e-09
107.51343918       3.26765327267e-09
108.013501688       4.7289156126e-09
108.513564196       6.96286249829e-09
109.013626703       1.03099568254e-08
109.513689211       1.52704281993e-08
110.013751719       2.2570591192e-08
110.513814227       3.32569525286e-08
111.013876735       4.88286125497e-08
111.513939242       7.14223361862e-08
112.01400175       1.04069817024e-07
112.514064258       1.51053481062e-07
113.014126766       2.18396176119e-07
113.514189274       3.14531899719e-07
114.014251781       4.5122012116e-07
114.514314289       6.4478622977e-07
115.014376797       9.17796392435e-07
115.514439305       1.3013080932e-06
116.014501813       1.8378796225e-06
116.514564321       2.58557489402e-06
117.014626828       3.62326668726e-06
117.514689336       5.05762465695e-06
118.014751844       7.03227757476e-06
118.514814352       9.73976609168e-06
119.01487686       1.34370571001e-05
119.514939367       1.84655782174e-05
120.015001875       2.52769560369e-05
120.515064383       3.4465909857e-05
121.015126891       4.68120688952e-05
121.515189399       6.33328506362e-05
122.015251906       8.53499655036e-05
122.515314414       0.000114572602092
123.015376922       0.000153200899868
123.51543943       0.00020405393252
124.015501938       0.00027072710209
124.515564446       0.000357784575034
125.015626953       0.000470993164997
125.515689461       0.000617604866357
126.015751969       0.000806696043447
126.515814477       0.00104957205115
127.015876985       0.00136024676269
127.515939492       0.00175600705942
128.016002       0.0022580727355
128.516064508       0.0028923624155
129.016127016       0.00369037589603
129.516189524       0.00469020271182
130.016252032       0.00593766559625
130.516314539       0.00748760575335
131.016377047       0.00940531437952
131.516439555       0.0117681115696
132.016502063       0.0146670695214
132.516564571       0.018208871743
133.016627078       0.0225177937151
133.516689586       0.0277377831508
134.016752094       0.0340346096473
134.516814602       0.0415980442182
135.01687711       0.0506440190557
135.516939617       0.0614167071114
136.017002125       0.0741904499629
136.517064633       0.08927145132
137.017127141       0.106999142828
137.517189649       0.127747119067
138.017252157       0.151923530399
138.517314664       0.17997081616
139.017377172       0.212364657397
139.51743968       0.249612028422
140.017502188       0.292248230744
140.517564696       0.34083280188
141.017627203       0.395944205757
141.517689711       0.458173231277
142.017752219       0.528115051291
142.517814727       0.606359925792
143.017877235       0.693482570327
143.517939742       0.790030252952
144.01800225       0.896509729667
144.518064758       1.01337317816
145.018127266       1.14100334141
145.518189774       1.27969814444
146.018252282       1.42965509777
146.518314789       1.59095584727
147.018377297       1.76355127023
147.518439805       1.9472475495
148.018502313       2.14169367888
148.518564821       2.34637086183
149.018627328       2.56058426056
149.518689836       2.78345753168
150.018752344       3.0139305478
150.518814852       3.25076065086
151.01887736       3.49252771351
151.518939867       3.73764320018
152.019002375       3.98436332186
152.519064883       4.23080627001
153.019127391       4.47497339909
153.519189899       4.71477410716
154.019252407       4.94805404443
154.519314914       5.1726261639
155.019377422       5.38630402219
155.51943993       5.58693664516
156.019502438       5.77244419701
156.519564946       5.9408536362
157.019627453       6.09033351013
157.519689961       6.21922703413
158.019752469       6.32608262162
158.519814977       6.40968107976
159.019877485       6.46905875851
159.519939992       6.50352603881
160.0200025       6.51268066397
160.520065008       6.49641555381
161.020127516       6.45492088949
161.520190024       6.38868041209
162.020252532       6.29846203589
162.520315039       6.18530303076
163.020377547       6.05049017363
163.520440055       5.89553539998
164.020502563       5.72214759918
164.520565071       5.53220128907
165.020627578       5.32770297122
165.520690086       5.11075600886
166.020752594       4.88352488274
166.520815102       4.64819966674
167.02087761       4.40696152663
167.520940118       4.16194998414
168.021002625       3.91523260697
168.521065133       3.66877768832
169.021127641       3.42443036996
169.521190149       3.18389254594
170.021252657       2.94870676384
170.521315164       2.72024422097
171.021377672       2.49969683912
171.52144018       2.28807329548
172.021502688       2.08619879311
172.521565196       1.89471827424
173.021627703       1.71410271408
173.521690211       1.54465808479
174.021752719       1.38653654641
174.521815227       1.23974940609
175.021877735       1.10418138587
175.521940243       0.979605752372
176.02200275       0.865699886752
176.522065258       0.762060908277
177.022127766       0.668221007683
177.522190274       0.583662194856
178.022252782       0.50783021718
178.522315289       0.440147458126
179.022377797       0.380024678407
179.522440305       0.326871512849
180.022502813       0.280105683571
180.522565321       0.239160933301
181.022627828       0.20349372086
181.522690336       0.172588753642
182.022752844       0.145963459127
182.522815352       0.123171519172
183.02287786       0.103805607198
183.522940368       0.0874994798094
184.023002875       0.0739295813508
184.523065383       0.0628163227918
185.023127891       0.0539251957462
185.523190399       0.0470678787284
186.023252907       0.0421034863761
186.523315414       0.0389401035774
187.023377922       0.0375367354326
187.52344043       0.0379057908274
188.023502938       0.0401162020344
188.523565446       0.0442972650636
189.023627953       0.0506432651895
189.523690461       0.0594189289037
190.023752969       0.0709657171316
190.523815477       0.085708944591
191.023877985       0.104165676372
191.523940493       0.126953315023
192.024003       0.154798749588
192.524065508       0.18854789238
193.024128016       0.229175380167
193.524190524       0.277794164698
194.024253032       0.335664664136
194.524315539       0.404203093395
195.024378047       0.484988539549
195.524440555       0.579768300359
196.024503063       0.690460962266
196.524565571       0.819156661626
197.024628079       0.968113952521
197.524690586       1.13975269936
198.024753094       1.33664242569
198.524815602       1.56148558515
199.02487811       1.81709527877
199.524940618       2.10636702705
200.025003125       2.43224431639
200.525065633       2.79767777816
201.025128141       3.20557802406
201.525190649       3.65876235145
202.025253157       4.15989574356
202.525315664       4.7114268174
203.025378172       5.31551961058
203.52544068       5.97398233891
204.025503188       6.6881944926
204.525565696       7.45903385817
205.025628204       8.28680524827
205.525690711       9.17117287966
206.025753219       10.1110984525
206.525815727       11.1047870407
207.025878235       12.1496428971
207.525940743       13.2422372001
208.02600325       14.3782896171
208.526065758       15.5526653361
209.026128266       16.7593889122
209.526190774       17.9916759084
210.026253282       19.241982879
210.526315789       20.5020757577
211.026378297       21.7631161998
211.526440805       23.015764884
212.026503313       24.2503002457
212.526565821       25.456750588
213.026628329       26.6250370395
213.526690836       27.7451244023
214.026753344       28.8071765895
214.526815852       29.8017130995
215.02687836       30.7197628274
215.526940868       31.5530114843
216.027003375       32.2939389856
216.527065883       32.9359433783
217.027128391       33.4734482052
217.527190899       33.9019906311
218.027253407       34.2182881842
218.527315914       34.4202825556
219.027378422       34.5071595517
219.52744093       34.479344966
220.027503438       34.3384768185
220.527565946       34.0873550642
221.027628454       33.7298704856
221.527690961       33.2709150245
222.027753469       32.7162762691
222.527815977       32.0725191622
223.027878485       31.3468582456
223.527940993       30.5470238793
224.0280035       29.6811258818
224.528066008       28.7575179378
225.028128516       27.7846659043
225.528191024       26.77102285
226.028253532       25.7249132845
226.52831604       24.6544285994
227.028378547       23.5673352721
227.528441055       22.4709968968
228.028503563       21.3723106164
228.528566071       20.2776580688
229.028628579       19.1928705268
229.528691086       18.1232075377
230.028753594       17.0733480449
230.528816102       16.0473927292
231.02887861       15.0488761197
231.528941118       14.0807869216
232.029003625       13.1455949602
232.529066133       12.2452831619
233.029128641       11.3813830664
233.529191149       10.5550124821
234.029253657       9.76691404592
234.529316165       9.01749362965
235.029378672       8.30685771757
235.52944118       7.63484907712
236.029503688       7.00108022785
236.529566196       6.40496438946
237.029628704       5.84574374468
237.529691211       5.32251498611
238.029753719       4.83425222404
238.529816227       4.37982741508
239.029878735       3.95802852811
239.529941243       3.56757569797
240.03000375       3.20713563002
240.530066258       2.87533451358
241.030128766       2.57076968364
241.530191274       2.29202024085
242.030253782       2.03765680453
242.53031629       1.80625053476
243.030378797       1.59638152098
243.530441305       1.40664659831
244.030503813       1.23566662123
244.530566321       1.08209319782
245.030628829       0.944614868257
245.530691336       0.821962698311
246.030753844       0.712915251772
246.530816352       0.616302905374
247.03087886       0.531011473941
247.530941368       0.455985122002
248.031003875       0.39022854946
248.531066383       0.33280845205
249.031128891       0.282854271317
249.531191399       0.239558262555
250.031253907       0.202174922
250.531316415       0.170019825738
251.031378922       0.142467941929
251.53144143       0.11895148475
252.031503938       0.0989573828134
252.531566446       0.0820244367242
253.031628954       0.067740240077
253.531691461       0.0557379357908
254.031753969       0.0456928755202
254.531816477       0.0373192443344
255.031878985       0.0303667062625
255.531941493       0.0246171190278
256.032004001       0.0198813586607
256.532066508       0.0159962869991
257.032129016       0.0128218876038
257.532191524       0.0102385885512
258.032254032       0.00814478407828
258.53231654       0.00645456125324
259.032379047       0.00509563280907
259.532441555       0.00400747302478
260.032504063       0.0031396500775
260.532566571       0.00245034557858
261.032629079       0.0019050500002
261.532691586       0.00147542132641
262.032754094       0.00113829344862
262.532816602       0.000874820486761
263.03287911       0.000669743274168
263.532941618       0.000510764616013
264.033004126       0.000388020544688
264.533066633       0.00029363558477
265.033129141       0.000221350945811
265.533191649       0.000166215533827
266.033254157       0.000124330670451
266.533316665       9.26403991335e-05
