#  x                 y             frequency           intensity
0.0       5.42775248759e-11       57.25       7.16384
0.500062507813       8.47307143909e-11       115.28       2.13443
1.00012501563       1.31754304897e-10       155.86       108.20642
1.50018752344       2.0407597173e-10       211.80       13.87922
2.00025003125       3.14863301625e-10       237.97       42.97140
2.50031253907       4.83899674616e-10       316.30       0.39840
3.00037504688       7.40784229379e-10       368.36       2.75399
3.50043755469       1.1296170504e-09       437.79       16.04351
4.00050006251       1.71582844353e-09       479.58       84.28452
4.50056257032       2.59608913635e-09       510.83       10.68637
5.00062507813       3.91262701954e-09       626.81       23.70843
5.50068758595       5.87381701004e-09       722.75       6.42256
6.00075009376       8.78365942994e-09       801.18       169.65701
6.50081260158       1.30837933866e-08       867.20       9.22488
7.00087510939       1.9413103911e-08       933.42       8.26827
7.5009376172       2.86919056463e-08       1047.63       8.79810
8.00100012502       4.22402929774e-08       1063.09       117.95374
8.50106263283       6.19437598558e-08       1129.73       47.34484
9.00112514064       9.04839010948e-08       1171.52       0.57405
9.50118764846       1.3165828182e-07       1202.11       4.32385
10.0012501563       1.90821876753e-07       1255.68       18.60276
10.5013126641       2.75493435958e-07       1287.06       194.83550
11.0013751719       3.9618448245e-07       1296.87       148.02259
11.5014376797       5.67527329532e-07       1353.63       38.92651
12.0015001875       8.09802683708e-07       1399.11       21.60597
12.5015626953       1.1509984966e-06       1450.30       6.71569
13.0016252032       1.62957147544e-06       1498.85       3.90600
13.501687711       2.29813313563e-06       1623.44       68.19354
14.0017502188       3.22834595512e-06       1847.18       261.25750
14.5018127266       4.51739497987e-06       2908.45       37.22025
15.0018752344       6.29649951862e-06       2963.51       93.19860
15.5019377422       8.74205223379e-06       3054.07       26.39766
16.00200025       1.20901233735e-05       3521.98       5.64934
16.5020627578       1.66552509674e-05       3613.38       17.75233
17.0021252657       2.28546588358e-05       3766.75       41.17810
17.5021877735       3.123930888e-05       3825.08       48.34222
18.0022502813       4.25335081579e-05
18.5023127891       5.76851604873e-05
19.0023752969       7.79291821977e-05
19.5024378047       0.000104867096859
20.0025003125       0.000140566387766
20.5025628204       0.000187683821214
21.0026253282       0.000249617657007
21.502687836       0.000330694430636
22.0027503438       0.00043639681495
22.5028128516       0.000573639933239
23.0028753594       0.000751104378966
23.5029378672       0.000979635070491
24.003000375       0.00127271589363
24.5030628829       0.00164703081219
25.0031253907       0.00212312269734
25.5031878985       0.00272616147022
26.0032504063       0.00348683318594
26.5033129141       0.00444236131931
27.0033754219       0.00563767063967
27.5034379297       0.00712670257572
28.0035004376       0.00897388875773
28.5035629454       0.0112557863706
29.0036254532       0.0140628749511
29.503687961       0.0175015092203
30.0037504688       0.02169601639
30.5038129766       0.026790919066
31.0038754844       0.0329532564007
31.5039379922       0.0403749665558
32.0040005001       0.0492752829383
32.5040630079       0.0599030852305
33.0041255157       0.0725391342146
33.5041880235       0.0874981071107
34.0042505313       0.105130338034
34.5043130391       0.125823156731
35.0043755469       0.150001708564
35.5044380548       0.178129130421
36.0045005626       0.210705951548
36.5045630704       0.248268585975
37.0046255782       0.291386784938
37.504688086       0.34065992427
38.0047505938       0.396712013648
38.5048131016       0.460185332544
39.0048756095       0.531732621897
39.5049381173       0.612007791256
40.0050006251       0.701655138173
40.5050631329       0.801297119765
41.0051256407       0.91152076478
41.5051881485       1.03286286731
42.0052506563       1.16579415906
42.5053131641       1.31070271436
43.005375672       1.4678768984
43.5054381798       1.63748822342
44.0055006876       1.81957452566
44.5055631954       2.01402391751
45.0056257032       2.22055999996
45.505688211       2.43872883922
46.0057507188       2.66788821564
46.5058132267       2.9071996411
47.0058757345       3.1556236117
47.5059382423       3.41191851486
48.0060007501       3.67464354499
48.5060632579       3.94216589825
49.0061257657       4.21267241885
49.5061882735       4.48418575654
50.0062507813       4.75458497262
50.5063132892       5.02163040143
51.006375797       5.28299244248
51.5064383048       5.53628382745
52.0065008126       5.7790947827
52.5065633204       6.00903039572
53.0066258282       6.2237493979
53.506688336       6.42100350075
54.0067508439       6.59867637087
54.5068133517       6.75482130512
55.0068758595       6.8876966713
55.5069383673       6.995798214
56.0070008751       7.07788738863
56.5070633829       7.13301497756
57.0071258907       7.16053935906
57.5071883985       7.16013893727
58.0072509064       7.13181839665
58.5073134142       7.07590861075
59.007375922       6.99306020783
59.5074384298       6.88423096828
60.0075009376       6.7506673951
60.5075634454       6.5938809533
61.0076259532       6.4156196114
61.5076884611       6.21783543374
62.0077509689       6.00264906314
62.5078134767       5.77231199549
63.0078759845       5.52916758132
63.5079384923       5.27561169302
64.0080010001       5.01405397087
64.5080635079       4.74688050915
65.0081260158       4.47641876743
65.5081885236       4.20490539559
66.0082510314       3.93445754851
66.5083135392       3.6670481425
67.008376047       3.40448537474
67.5084385548       3.14839669467
68.0085010626       2.90021728668
68.5085635704       2.66118300087
69.0086260783       2.43232755668
69.5086885861       2.21448374584
70.0087510939       2.00828827897
70.5088136017       1.81418985467
71.0088761095       1.63245998343
71.5089386173       1.46320606969
72.0090011251       1.30638624388
72.509063633       1.16182544096
73.0091261408       1.02923224128
73.5091886486       0.908216020632
74.0092511564       0.798303997934
74.5093136642       0.698957817919
75.009376172       0.609589359986
75.5094386798       0.529575521235
76.0095011876       0.458271778859
76.5095636955       0.395024392939
77.0096262033       0.339181163489
77.5096887111       0.290100704071
78.0097512189       0.247160237353
78.5098137267       0.209761955127
79.0098762345       0.177338015971
79.5099387423       0.149354278013
80.0100012502       0.125312882242
80.510063758       0.104753813849
81.0101262658       0.0872555757504
81.5101887736       0.0724351103258
82.0102512814       0.0599471031955
82.5103137892       0.0494827973402
83.010376297       0.0407684376653
83.5104388049       0.0335634559903
84.0105013127       0.0276584949828
84.5105638205       0.0228733573311
85.0106263283       0.0190549539152
85.5106888361       0.0160753122943
86.0107513439       0.0138296947606
86.5108138517       0.0122348637383
87.0108763595       0.0112275215688
87.5109388674       0.0107629417972
88.0110013752       0.0108137999761
88.511063883       0.0113692037172
89.0111263908       0.0124339142046
89.5111888986       0.0140277445663
90.0112514064       0.0161851143276
90.5113139142       0.0189547335818
91.0113764221       0.0223993854687
91.5114389299       0.0265957710357
92.0115014377       0.03163437659
92.5115639455       0.0376193202679
93.0116264533       0.0446681318433
93.5116889611       0.0529114178709
94.0117514689       0.0624923632616
94.5118139767       0.0735660204647
95.0118764846       0.0862983387702
95.5119389924       0.100864889004
96.0120015002       0.117449243238
96.512064008       0.136240975218
97.0121265158       0.157433255094
97.5121890236       0.181220021809
98.0122515314       0.207792728086
98.5123140393       0.237336666286
99.0123765471       0.270026898257
99.5124390549       0.306023828418
100.012501563       0.345468476272
100.512564071       0.388477521884
101.012626578       0.435138214998
101.512689086       0.485503254768
102.012751594       0.539585761853
102.512814102       0.597354477124
103.01287661       0.658729330745
103.512939117       0.723577531269
104.013001625       0.791710325905
104.513064133       0.862880579886
105.013126641       0.936781314404
105.513189149       1.01304532874
106.013251656       1.09124601304
106.513314164       1.17089943367
107.013376672       1.2514677441
107.51343918       1.33236394087
108.013501688       1.412957948
108.513564196       1.49258397456
109.013626703       1.57054905104
109.513689211       1.64614261122
110.013751719       1.7186469496
110.513814227       1.78734835134
111.013876735       1.85154866293
111.513939242       1.9105770499
112.01400175       1.96380167283
112.514064258       2.01064100613
113.014126766       2.05057452624
113.514189274       2.08315250702
114.014251781       2.10800468025
114.514314289       2.12484754844
115.014376797       2.13349017389
115.514439305       2.13383831206
116.014501813       2.12589680722
116.514564321       2.10977022239
117.014626828       2.08566173226
117.514689336       2.05387036586
118.014751844       2.01478674214
118.514814352       1.9688874968
119.01487686       1.91672864878
119.514939367       1.85893820032
120.015001875       1.79620830308
120.515064383       1.72928735414
121.015126891       1.65897240906
121.515189399       1.5861023137
122.015251906       1.51155196297
122.515314414       1.4362280918
123.015376922       1.36106699283
123.51543943       1.28703453586
124.015501938       1.21512883668
124.515564446       1.14638588778
125.015626953       1.08188841998
125.515689461       1.02277821346
126.015751969       0.970272016934
126.515814477       0.925681166509
127.015876985       0.890434918173
127.515939492       0.866107421281
128.016002       0.854448162416
128.516064508       0.857415599855
129.016127016       0.877213587619
129.516189524       0.916330054658
130.016252032       0.977577259412
130.516314539       1.0641327839
131.016377047       1.17958026639
131.516439555       1.32794870069
132.016502063       1.51374895705
132.516564571       1.74200601017
133.016627078       2.0182852003
133.516689586       2.34871071181
134.016752094       2.73997433908
134.516814602       3.19933253185
135.01687711       3.73458968179
135.516939617       4.35406564015
136.017002125       5.06654555306
136.517064633       5.88121027595
137.017127141       6.80754589037
137.517189649       7.85523120049
138.017252157       9.0340025364
138.517314664       10.3534957362
139.017377172       11.8230658153
139.51743968       13.4515855474
140.017502188       15.2472249695
140.517564696       17.2172146544
141.017627203       19.367596455
141.517689711       21.7029662815
142.017752219       24.2262142884
142.517814727       26.9382686031
143.017877235       29.8378493655
143.517939742       32.921240348
144.01800225       36.1820857414
144.518064758       39.6112197995
145.018127266       43.1965368994
145.518189774       46.9229091819
146.018252282       50.7721582713
146.518314789       54.7230866337
147.018377297       58.7515729314
147.518439805       62.8307342796
148.018502313       66.9311566549
148.518564821       71.0211928742
149.018627328       75.0673256175
149.518689836       79.0345909718
150.018752344       82.8870559912
150.518814852       86.5883418687
151.01887736       90.102182588
151.518939867       93.3930074147
152.019002375       96.4265343846
152.519064883       99.1703610953
153.019127391       101.594538656
153.519189899       103.672114633
154.019252407       105.379631243
154.519314914       106.69756595
155.019377422       107.610702867
155.51943993       108.10842511
156.019502438       108.184920232
156.519564946       107.839293183
157.019627453       107.075583722
157.519689961       105.90268781
158.019752469       104.334185117
158.519814977       102.388077325
159.019877485       100.086444265
159.519939992       97.4550270881
160.0200025       94.5227494515
160.520065008       91.321189173
161.020127516       87.884013819
161.520190024       84.2463942886
162.020252532       80.4444105941
162.520315039       76.5144637393
163.020377547       72.4927068895
163.520440055       68.4145079399
164.020502563       64.31395419
164.520565071       60.2234081727
165.020627578       56.1731218398
165.520690086       52.1909143477
166.020752594       48.3019166871
166.520815102       44.5283844285
167.02087761       40.8895779787
167.520940118       37.4017080186
168.021002625       34.0779422624
168.521065133       30.9284683874
169.021127641       27.960606946
169.521190149       25.1789673122
170.021252657       22.5856392237
170.521315164       20.1804122595
171.021377672       17.9610156163
171.52144018       15.9233707978
172.021502688       14.0618502674
172.521565196       12.3695357175
173.021627703       10.8384703243
173.521690211       9.45990016117
174.021752719       8.22450079495
174.521815227       7.1225859536
175.021877735       6.14429600398
175.521940243       5.27976478568
176.02200275       4.51926409236
176.522065258       3.85332575916
177.022127766       3.27284189174
177.522190274       2.76914425428
178.022252782       2.33406421734
178.522315289       1.95997495427
179.022377797       1.63981777123
179.522440305       1.36711456914
180.022502813       1.13596847389
180.522565321       0.941054646036
181.022627828       0.77760320186
181.522690336       0.641376057111
182.022752844       0.528639351807
182.522815352       0.43613294
183.02287786       0.361038240767
183.522940368       0.300945553465
184.023002875       0.253821748074
184.523065383       0.21797905506
185.023127891       0.192045502764
185.523190399       0.174937386511
186.023252907       0.165834004304
186.523315414       0.164154760183
187.023377922       0.169538618388
187.52344043       0.181825789363
188.023502938       0.201041441897
188.523565446       0.227381163822
189.023627953       0.261197835949
189.523690461       0.302989539893
190.023752969       0.3533880895
190.523815477       0.413147757589
191.023877985       0.4831337644
191.523940493       0.564310101589
192.024003       0.657726285908
192.524065508       0.764502669969
193.024128016       0.885813983916
193.524190524       1.0228708413
194.024253032       1.17689901474
194.524315539       1.34911637161
195.024378047       1.54070745558
195.524440555       1.75279580572
196.024503063       1.98641421787
196.524565571       2.2424732717
197.024628079       2.52172856687
197.524690586       2.82474723096
198.024753094       3.15187437396
198.524815602       3.50320026726
199.02487811       3.87852911213
199.524940618       4.277350331
200.025003125       4.69881335875
200.525065633       5.14170692719
201.025128141       5.60444382097
201.525190649       6.08505203424
202.025253157       6.5811731735
202.525315664       7.09006883355
203.025378172       7.60863552064
203.52544068       8.13342851388
204.025503188       8.66069484532
204.525565696       9.18641534811
205.025628204       9.70635547634
205.525690711       10.2161243477
206.025753219       10.7112412094
206.525815727       11.1872082896
207.025878235       11.6395887733
207.525940743       12.0640884534
208.02600325       12.4566394498
208.526065758       12.813484274
209.026128266       13.1312584521
209.526190774       13.4070699019
210.026253282       13.638573293
210.526315789       13.8240377058
211.026378297       13.962406037
211.526440805       14.0533447732
212.026503313       14.0972829652
212.526565821       14.0954394709
213.026628329       14.0498377932
213.526690836       13.9633080975
214.026753344       13.8394762584
214.526815852       13.6827400335
215.02687836       13.4982326929
215.526940868       13.291774637
216.027003375       13.069813707
216.527065883       12.8393550305
217.027128391       12.6078813474
217.527190899       12.3832648267
218.027253407       12.1736714268
218.527315914       11.9874588609
219.027378422       11.8330692267
219.52744093       11.7189173434
220.027503438       11.6532758244
220.527565946       11.6441579032
221.027628454       11.6991990381
221.527690961       11.8255383435
222.027753469       12.029700951
222.527815977       12.3174824753
223.027878485       12.6938368673
223.527940993       13.1627690561
224.0280035       13.7272339246
224.528066008       14.3890433038
225.028128516       15.1487828112
225.528191024       16.005740477
226.028253532       16.9578491843
226.52831604       18.0016449906
227.028378547       19.1322433682
227.528441055       20.3433353048
228.028503563       21.6272050233
228.528566071       22.974770807
229.028628579       24.3756500543
229.528691086       25.818249235
230.028753594       27.2898788854
230.528816102       28.7768931771
231.02887861       30.264852937
231.528941118       31.738710308
232.029003625       33.1830125431
232.529066133       34.5821217471
233.029128641       35.9204467491
233.529191149       37.1826827322
234.029253657       38.3540537879
234.529316165       39.4205532326
235.029378672       40.3691763334
235.52944118       41.1881400616
236.029503688       41.8670846283
236.529566196       42.3972518658
237.029628704       42.7716359879
237.529691211       42.9851028887
238.029753719       43.0344748972
238.529816227       42.9185787785
239.029878735       42.6382557209
239.529941243       42.1963330526
240.03000375       41.5975584461
240.530066258       40.848498363
241.030128766       39.9574034298
241.530191274       38.9340442861
242.030253782       37.789522176
242.53031629       36.5360591456
243.030378797       35.1867731395
243.530441305       33.7554435484
244.030503813       32.2562728429
244.530566321       30.7036498397
245.030628829       29.1119198904
245.530691336       27.4951668771
246.030753844       25.8670113669
246.530816352       24.2404286324
247.03087886       22.627589528
247.530941368       21.0397264392
248.031003875       19.4870257307
248.531066383       17.9785473333
249.031128891       16.522171356
249.531191399       15.1245709122
250.031253907       13.7912097285
250.531316415       12.5263625695
251.031378922       11.3331560864
251.53144143       10.2136273686
252.031503938       9.16879726884
252.531566446       8.19875545914
253.031628954       7.30275417131
253.531691461       6.47930765483
254.031753969       5.72629454856
254.531816477       5.04106058833
255.031878985       4.42051935039
255.531941493       3.86124904413
256.032004001       3.3595837027
256.532066508       2.91169746384
257.032129016       2.51368097189
257.532191524       2.16160925712
258.032254032       1.85160074926
258.53231654       1.57986735308
259.032379047       1.34275575034
259.532441555       1.13678029032
260.032504063       0.958647990942
260.532566571       0.805276293558
261.032629079       0.673804299032
261.532691586       0.561598263441
262.032754094       0.466252152391
262.532816602       0.385584047328
263.03287911       0.317629170069
263.532941618       0.260630247261
264.033004126       0.213025879071
264.533066633       0.173437510079
265.033129141       0.140655528789
265.533191649       0.113624948532
266.033254157       0.0914310496594
266.533316665       0.0732852927425
267.033379172       0.0585117470067
267.53344168       0.0465342183369
268.033504188       0.0368642078957
268.533566696       0.0290897859592
269.033629204       0.0228654261385
269.533691711       0.0179028125116
270.033754219       0.0139626059689
270.533816727       0.0108471357523
271.033879235       0.00839396712227
271.533941743       0.00647028565268
272.034004251       0.00496803215456
272.534066758       0.00379971898511
273.034129266       0.00289485789373
