#  x                 y             frequency           intensity
0.0       2.80386241628e-06       41.12       1.53003
0.500062507813       3.85871585825e-06       154.05       4.35437
1.00012501563       5.28971183086e-06       207.42       1.73275
1.50018752344       7.22311185195e-06       270.51       14.27300
2.00025003125       9.82471089753e-06       285.77       24.36511
2.50031253907       1.33112344352e-05       289.14       5.36554
3.00037504688       1.79647011844e-05       454.17       9.27729
3.50043755469       2.4150424912e-05       502.48       19.64690
4.00050006251       3.23394528497e-05       522.86       178.75867
4.50056257032       4.31363776126e-05       591.22       26.65761
5.00062507813       5.73136133877e-05       622.19       79.51622
5.50068758595       7.58533944458e-05       747.69       21.72483
6.00075009376       9.99989324645e-05       811.62       53.18992
6.50081260158       0.00013131635525       851.88       143.77249
7.00087510939       0.000171769238216       993.44       1.27876
7.5009376172       0.00022380772466       1024.20       31.79924
8.00100012502       0.000290474402735       1079.89       108.12426
8.50106263283       0.000375529255092       1116.90       44.21537
9.00112514064       0.000483596108171       1149.32       221.42814
9.50118764846       0.000620333066336       1183.83       7.05027
10.0012501563       0.000792629403262       1245.16       17.91202
10.5013126641       0.00100883127896       1312.42       11.70643
11.0013751719       0.00127899843315       1379.01       15.07662
11.5014376797       0.00161519365068       1386.47       37.49356
12.0015001875       0.00203180627848       1399.44       5.28683
12.5015626953       0.00254591037129       1423.92       31.50601
13.0016252032       0.00317765713429       1500.92       4.18570
13.501687711       0.00395070019416       1660.29       34.61044
14.0017502188       0.0048926508529       1786.21       277.88472
14.5018127266       0.00603555885349       2994.47       43.95352
15.0018752344       0.00741641231394       3055.37       13.70948
15.5019377422       0.00907764838047       3106.49       18.51461
16.00200025       0.0110676638367       3489.41       1.68093
16.5020627578       0.0134413124244       3573.60       5.74127
17.0021252657       0.0162603730432       3718.09       68.29395
17.5021877735       0.0195939703713       3761.50       52.46911
18.0022502813       0.0235189268906
18.5023127891       0.0281200229095
19.0023752969       0.0334901390892
19.5024378047       0.03973025434
20.0025003125       0.0469492709041
20.5025628204       0.055263638157
21.0026253282       0.0647967472755
21.502687836       0.0756780706061
22.0027503438       0.0880420224333
22.5028128516       0.102026522015
23.0028753594       0.117771245275
23.5029378672       0.135415558449
24.003000375       0.155096135243
24.5030628829       0.176944268567
25.0031253907       0.201082898524
25.5031878985       0.227623389802
26.0032504063       0.256662103637
26.5033129141       0.288276821746
27.0033754219       0.322523091586
27.5034379297       0.359430573579
28.0035004376       0.398999480949
28.5035629454       0.441197211083
29.0036254532       0.485955273362
29.503687961       0.533166621601
30.0037504688       0.582683499308
30.5038129766       0.634315902495
31.0038754844       0.687830757506
31.5039379922       0.742951900201
32.0040005001       0.799360927872
32.5040630079       0.856698976648
33.0041255157       0.914569455293
33.5041880235       0.972541741632
34.0042505313       1.0301558212
34.5043130391       1.08692781969
35.0043755469       1.14235635265
35.5044380548       1.19592958797
36.0045005626       1.24713289129
36.5045630704       1.29545690074
37.0046255782       1.34040585838
37.504688086       1.38150601069
38.0047505938       1.41831388079
38.5048131016       1.45042421167
39.0048756095       1.47747738202
39.5049381173       1.49916610518
40.0050006251       1.51524123701
40.5050631329       1.52551653911
41.0051256407       1.52987227018
41.5051881485       1.52825750863
42.0052506563       1.52069114344
42.5053131641       1.50726150642
43.005375672       1.48812465575
43.5054381798       1.46350135747
44.0055006876       1.43367284663
44.5055631954       1.3989754818
45.0056257032       1.35979443494
45.505688211       1.31655658225
46.0057507188       1.26972277898
46.5058132267       1.21977971343
47.0058757345       1.16723154051
47.5059382423       1.11259149463
48.0060007501       1.05637367448
48.5060632579       0.999085180119
49.0061257657       0.941218765
49.5061882735       0.883246144229
50.0062507813       0.825612075434
50.5063132892       0.768729301751
51.006375797       0.71297441829
51.5064383048       0.658684695277
52.0065008126       0.606155863646
52.5065633204       0.555640843216
53.0066258282       0.507349370362
53.506688336       0.461448461916
54.0067508439       0.41806363537
54.5068133517       0.377280792547
55.0068758595       0.339148664859
55.5069383673       0.303681713098
56.0070008751       0.270863373159
56.5070633829       0.240649540913
57.0071258907       0.212972194236
57.5071883985       0.187743057498
58.0072509064       0.164857223097
58.5073134142       0.144196655362
59.007375922       0.125633513893
59.5074384298       0.109033245543
60.0075009376       0.0942574064135
60.5075634454       0.0811661870091
61.0076259532       0.0696206247442
61.5076884611       0.0594844980067
62.0077509689       0.0506259048622
62.5078134767       0.0429185370007
63.0078759845       0.0362426656966
63.5079384923       0.0304858613295
64.0080010001       0.0255434714734
64.5080635079       0.0213188847699
65.0081260158       0.0177236088923
65.5081885236       0.0146771910205
66.0082510314       0.0121070085232
66.5083135392       0.00994795616175
67.008376047       0.00814205422458
67.5084385548       0.00663799973848
68.0085010626       0.00539068040225
68.5085635704       0.00436066828342
69.0086260783       0.00351370770221
69.5086885861       0.00282020918809
70.0087510939       0.00225475899774
70.5088136017       0.00179565147737
71.0088761095       0.00142444957066
71.5089386173       0.0011255770336
72.0090011251       0.000885944427006
72.509063633       0.000694609711537
73.0091261408       0.000542473258696
73.5091886486       0.000422006296486
74.0092511564       0.00032701120972
74.5093136642       0.000252411688832
75.009376172       0.000194070443337
75.5094386798       0.000148632042641
76.0095011876       0.000113388394921
76.5095636955       8.61644027342e-05
77.0096262033       6.52214228884e-05
77.5096887111       4.91762909427e-05
78.0097512189       3.69338331415e-05
78.5098137267       2.76309685841e-05
79.0098762345       2.05906922811e-05
79.5099387423       1.52844177966e-05
80.0100012502       1.13013406481e-05
80.510063758       8.32365639378e-06
81.0101262658       6.10662758396e-06
81.5101887736       4.46263985047e-06
82.0102512814       3.24851859017e-06
82.5103137892       2.35549391452e-06
83.010376297       1.70130324235e-06
83.5104388049       1.22400892859e-06
84.0105013127       8.77183704005e-07
84.5105638205       6.26180641316e-07
85.0106263283       4.45258103613e-07
85.5106888361       3.1537491083e-07
86.0107513439       2.22507965477e-07
86.5108138517       1.56374919493e-07
87.0108763595       1.0946915149e-07
87.5109388674       7.63342645346e-08
88.0110013752       5.30213073474e-08
88.511063883       3.6684660017e-08
89.0111263908       2.52826034119e-08
89.5111888986       1.73565128852e-08
90.0112514064       1.18688034485e-08
90.5113139142       8.08455510427e-09
91.0113764221       5.48545076805e-09
91.5114389299       3.70749901313e-09
92.0115014377       2.49617843159e-09
92.5115639455       1.67428073561e-09
93.0116264533       1.11896574873e-09
93.5116889611       7.45467670403e-10
94.0117514689       4.95582400538e-10
94.5118139767       3.29577774225e-10
95.0118764846       2.20546699491e-10
95.5119389924       1.50501555145e-10
96.0120015002       1.07712947845e-10
96.512064008       8.4947074935e-11
97.0121265158       7.83689030658e-11
97.5121890236       8.69651795181e-11
98.0122515314       1.12411611042e-10
98.5123140393       1.59370554866e-10
99.0123765471       2.36266743994e-10
99.5124390549       3.56656428756e-10
100.012501563       5.41388176294e-10
100.512564071       8.21861391451e-10
101.012626578       1.24483399747e-09
101.512689086       1.87943006236e-09
102.012751594       2.82727322311e-09
102.512814102       4.23705151366e-09
103.01287661       6.32534224324e-09
103.512939117       9.40624318508e-09
104.013001625       1.39333363565e-08
104.513064133       2.05588423262e-08
105.013126641       3.02166229319e-08
105.513189149       4.42381100626e-08
106.013251656       6.4513473256e-08
106.513314164       9.37146397659e-08
107.013376672       1.35602466016e-07
107.51343918       1.95447831127e-07
108.013501688       2.80606185108e-07
108.513564196       4.01297762084e-07
109.013626703       5.71662033256e-07
109.513689211       8.11175966082e-07
110.013751719       1.14655241337e-06
110.513814227       1.61426884085e-06
111.013876735       2.26391922819e-06
111.513939242       3.16263523583e-06
112.01400175       4.40088880237e-06
112.514064258       6.10006971576e-06
113.014126766       8.42233117898e-06
113.514189274       1.15833170481e-05
114.014251781       1.58685295779e-05
114.514314289       2.16542696598e-05
115.014376797       2.94342862272e-05
115.514439305       3.98535111876e-05
116.014501813       5.37505340678e-05
116.514564321       7.22107890821e-05
117.014626828       9.66327882165e-05
117.514689336       0.000128810137461
118.014751844       0.000171032518011
118.514814352       0.000226209296212
119.01487686       0.000298019938302
119.514939367       0.000391095938051
120.015001875       0.000511239502136
120.515064383       0.000665684759476
121.015126891       0.000863407740787
121.515189399       0.00111549178116
122.015251906       0.00143555529241
122.515314414       0.00184024898732
123.015376922       0.00234982956236
123.51543943       0.00298881649905
124.015501938       0.00378673796429
124.515564446       0.00477897070683
125.015626953       0.00600767729363
125.515689461       0.00752284193697
126.015751969       0.00938340346965
126.515814477       0.0116584806788
127.015876985       0.0144286811712
127.515939492       0.0177874801983
128.016002       0.0218426504241
128.516064508       0.0267177175218
129.016127016       0.0325534098086
129.516189524       0.0395090630031
130.016252032       0.0477639337897
130.516314539       0.0575183684156
131.016377047       0.0689947653186
131.516439555       0.0824382641023
132.016502063       0.0981170874195
132.516564571       0.116322457907
133.016627078       0.137368009672
133.516689586       0.1615886134
134.016752094       0.189338536421
134.516814602       0.220988864381
135.01687711       0.256924119938
135.516939617       0.297538026417
136.017002125       0.343228380695
136.517064633       0.394391019959
137.017127141       0.451412891061
137.517189649       0.514664258855
138.017252157       0.584490120537
138.517314664       0.66120092601
139.017377172       0.745062738653
139.51743968       0.836287005675
140.017502188       0.935020141013
140.517564696       1.04133315533
141.017627203       1.15521159547
141.517689711       1.27654607821
142.017752219       1.40512371913
142.517814727       1.54062076499
143.017877235       1.68259673677
143.517939742       1.83049037854
144.01800225       1.98361768512
144.518064758       2.14117224781
145.018127266       2.30222811304
145.518189774       2.46574529439
146.018252282       2.63057801436
146.518314789       2.79548568161
147.018377297       2.95914653191
147.518439805       3.12017378196
148.018502313       3.27713406424
148.518564821       3.42856783347
149.018627328       3.57301136256
149.518689836       3.70901988154
150.018752344       3.83519135965
150.518814852       3.95019039092
151.01887736       4.05277161904
151.518939867       4.14180212968
152.019002375       4.21628224904
152.519064883       4.27536421536
153.019127391       4.31836823628
153.519189899       4.3447955067
154.019252407       4.35433783889
154.519314914       4.34688364468
155.019377422       4.32252010752
155.51943993       4.28153148519
156.019502438       4.22439358943
156.519564946       4.1517645924
157.019627453       4.06447240826
157.519689961       3.96349898814
158.019752469       3.84996194493
158.519814977       3.72509398843
159.019877485       3.5902206991
159.519939992       3.44673719949
160.0200025       3.29608429471
160.520065008       3.13972464793
161.020127516       2.97911953469
161.520190024       2.81570668133
162.020252532       2.65087964147
162.520315039       2.48596910084
163.020377547       2.32222642959
163.520440055       2.16080972323
164.020502563       2.00277249356
164.520565071       1.84905509067
165.020627578       1.70047885991
165.520690086       1.5577429658
166.020752594       1.42142374998
166.520815102       1.29197643483
167.02087761       1.16973893851
167.520940118       1.05493753243
168.021002625       0.947694048361
168.521065133       0.848034329648
169.021127641       0.755897618093
169.521190149       0.671146575174
170.021252657       0.593577651127
170.521315164       0.522931537467
171.021377672       0.458903465865
171.52144018       0.401153147697
172.021502688       0.349314182379
172.521565196       0.303002797533
173.021627703       0.261825818732
173.521690211       0.225387799989
174.021752719       0.19329727736
174.521815227       0.165172136211
175.021877735       0.140644107472
175.521940243       0.119362429072
176.02200275       0.100996725651
176.522065258       0.0852391725648
177.022127766       0.0718060192222
177.522190274       0.0604385522384
178.022252782       0.0509035809938
178.522315289       0.0429935274118
179.022377797       0.036526198468
179.522440305       0.0313443145864
180.022502813       0.0273148600499
180.522565321       0.0243283132889
181.022627828       0.0222978057604
181.522690336       0.0211582484489
182.022752844       0.0208654551037
182.522815352       0.0213952814481
183.02287786       0.0227427899843
183.522940368       0.0249214408815
184.023002875       0.0279623009526
184.523065383       0.0319132550641
185.023127891       0.0368381976228
185.523190399       0.0428161761943
186.023252907       0.0499404549527
186.523315414       0.0583174626681
187.023377922       0.0680655884303
187.52344043       0.0793137883822
188.023502938       0.0921999684918
188.523565446       0.106869111896
189.023627953       0.123471124627
189.523690461       0.142158380608
190.023752969       0.163082955556
190.523815477       0.186393549873
191.023877985       0.21223211237
191.523940493       0.240730189714
192.024003       0.272005040315
192.524065508       0.306155565677
193.024128016       0.343258126552
193.524190524       0.383362324963
194.024253032       0.426486845843
194.524315539       0.472615462991
195.024378047       0.521693322713
195.524440555       0.573623624304
196.024503063       0.628264818957
196.524565571       0.685428447247
197.024628079       0.744877729746
197.524690586       0.80632701534
198.024753094       0.869442177464
198.524815602       0.933842029726
199.02487811       0.999100809794
199.524940618       1.06475175419
200.025003125       1.13029175777
200.525065633       1.19518708059
201.025128141       1.25888003321
201.525190649       1.32079653939
202.025253157       1.38035444482
202.525315664       1.43697241242
203.025378172       1.49007922017
203.52544068       1.53912325752
204.025503188       1.58358200257
204.525565696       1.62297125359
205.025628204       1.6568538881
205.525690711       1.68484792827
206.025753219       1.70663370486
206.525815727       1.7219599319
207.025878235       1.73064853086
207.525940743       1.73259807458
208.02600325       1.72778575811
208.526065758       1.71626784268
209.026128266       1.69817856091
209.526190774       1.67372751282
210.026253282       1.64319562355
210.526315789       1.60692977149
211.026378297       1.56533623067
211.526440805       1.51887310054
212.026503313       1.46804192026
212.526565821       1.41337868178
213.026628329       1.35544446622
213.526690836       1.29481593102
214.026753344       1.2320758713
214.526815852       1.16780406829
215.02687836       1.10256862074
215.526940868       1.03691793341
216.027003375       0.971373510651
216.527065883       0.906423673483
217.027128391       0.842518287731
217.527190899       0.780064558497
218.027253407       0.719423914676
218.527315914       0.660909976964
219.027378422       0.604787574852
219.52744093       0.551272753264
220.027503438       0.500533688364
220.527565946       0.452692415032
221.027628454       0.407827255818
221.527690961       0.365975832916
222.027753469       0.327138540673
222.527815977       0.291282356148
223.027878485       0.258344868875
223.527940993       0.228238417707
224.0280035       0.200854232013
224.528066008       0.176066485821
225.028128516       0.153736186303
225.528191024       0.133714831573
226.028253532       0.115847786712
226.52831604       0.0999773406313
227.028378547       0.0859454194995
227.528441055       0.0735959446506
228.028503563       0.0627768338604
228.528566071       0.0533416544722
229.028628579       0.0451509449857
229.528691086       0.0380732283347
230.028753594       0.0319857452275
230.528816102       0.0267749396851
231.02887861       0.0223367314178
231.528941118       0.0185766110856
232.029003625       0.0154095949795
232.529066133       0.0127600754106
233.029128641       0.0105616023117
233.529191149       0.00875663039267
234.029253657       0.00729626483609
234.529316165       0.00614003709194
235.029378672       0.00525574095741
235.52944118       0.00461935788605
236.029503688       0.00421509941326
236.529566196       0.00403559372775
237.029628704       0.00408224273958
237.529691211       0.00436577543977
238.029753719       0.0049070228216
238.529816227       0.00573793901266
239.029878735       0.006902892391
239.529941243       0.00846024913963
240.03000375       0.0104842697175
240.530066258       0.0130673358587
241.030128766       0.0163225217113
241.530191274       0.0203865173428
242.030253782       0.0254229058331
242.53031629       0.0316257863325
243.030378797       0.0392237245972
243.530441305       0.0484839995063
244.030503813       0.0597170988649
244.530566321       0.0732814004411
245.030628829       0.0895879548382
245.530691336       0.109105265748
246.030753844       0.132363940811
246.530816352       0.159961063325
247.03087886       0.192564112171
247.530941368       0.230914235495
248.031003875       0.27582866403
248.531066383       0.328202033701
249.031128891       0.389006375668
249.531191399       0.459289526776
250.031253907       0.540171715786
250.531316415       0.632840092391
251.031378922       0.738540987974
251.53144143       0.858569730567
252.031503938       0.994257882229
252.531566446       1.14695782551
253.031628954       1.31802469667
253.531691461       1.50879574632
254.031753969       1.72056730165
254.531816477       1.95456960649
255.031878985       2.21193992404
255.531941493       2.49369439712
256.032004001       2.80069927073
256.532066508       3.13364218475
257.032129016       3.49300433655
257.532191524       3.87903439002
258.032254032       4.29172506134
258.53231654       4.73079334
259.032379047       5.19566530031
259.532441555       5.68546641975
260.032504063       6.1990182442
260.532566571       6.73484212388
261.032629079       7.29117058757
261.532691586       7.86596672867
262.032754094       8.45695174758
262.532816602       9.06164053611
263.03287911       9.67738490857
263.532941618       10.3014237889
264.033004126       10.9309393648
264.533066633       11.5631179292
265.033129141       12.1952138575
265.533191649       12.8246149323
