#  x                 y             frequency           intensity
0.0       5.9426769146e-16       67.41       1.55526
0.500062507813       1.00433682475e-15       165.33       1.75934
1.00012501563       1.69075144312e-15       231.10       2.35842
1.50018752344       2.83519712519e-15       277.23       74.85813
2.00025003125       4.7357619726e-15       287.84       31.14653
2.50031253907       7.87951678356e-15       302.21       45.09339
3.00037504688       1.30590750252e-14       359.42       16.06852
3.50043755469       2.15589875604e-14       389.56       15.21294
4.00050006251       3.54525452423e-14       574.90       6.87188
4.50056257032       5.80723754064e-14       712.94       28.14002
5.00062507813       9.47534157728e-14       751.85       46.65771
5.50068758595       1.5400090456e-13       788.39       54.00747
6.00075009376       2.49318658651e-13       813.22       27.49902
6.50081260158       4.02058644928e-13       871.89       141.95310
7.00087510939       6.45843273151e-13       914.98       2.11258
7.5009376172       1.03339888679e-12       1001.85       13.28389
8.00100012502       1.64706959907e-12       1045.29       75.31140
8.50106263283       2.61492372909e-12       1131.65       32.10241
9.00112514064       4.13532087678e-12       1157.15       2.48087
9.50118764846       6.51422139713e-12       1221.80       20.10009
10.0012501563       1.02216011003e-11       1257.54       68.53536
10.5013126641       1.59763827072e-11       1295.02       0.28078
11.0013751719       2.48737402671e-11       1340.77       6.10068
11.5014376797       3.85750811047e-11       1406.44       19.83641
12.0015001875       5.95903194505e-11       1416.70       273.98369
12.5015626953       9.16954301829e-11       1441.88       0.74937
13.0016252032       1.40547389664e-10       1506.81       5.04302
13.501687711       2.14585804516e-10       1655.25       39.70327
14.0017502188       3.26349015128e-10       1824.87       338.59600
14.5018127266       4.94386652444e-10       3020.72       35.12332
15.0018752344       7.46026544945e-10       3071.74       23.32912
15.5019377422       1.12135968245e-09       3077.64       11.98149
16.00200025       1.67895365002e-09       3493.25       3.37283
16.5020627578       2.50400729378e-09       3538.44       339.01203
17.0021252657       3.71993700282e-09       3572.26       8.80418
17.5021877735       5.50476386161e-09       3822.49       59.92087
18.0022502813       8.11418518835e-09
18.5023127891       1.19139082116e-08
19.0023752969       1.74247556793e-08
19.5024378047       2.5385297526e-08
20.0025003125       3.68384146005e-08
20.5025628204       5.32503808055e-08
21.0026253282       7.66739111617e-08
21.502687836       1.09970355699e-07
22.0027503438       1.57111058726e-07
22.5028128516       2.23584140065e-07
23.0028753594       3.16940942483e-07
23.5029378672       4.47526554151e-07
24.003000375       6.29451665224e-07
24.5030628829       8.81879154759e-07
25.0031253907       1.23071892966e-06
25.5031878985       1.71084945921e-06
26.0032504063       2.36901508507e-06
26.5033129141       3.26758556224e-06
27.0033754219       4.48940952605e-06
27.5034379297       6.1440478881e-06
28.0035004376       8.37573779727e-06
28.5035629454       1.13735140258e-05
29.0036254532       1.53840036668e-05
29.503687961       2.07275129406e-05
30.0037504688       2.78181425422e-05
30.5038129766       3.71888008103e-05
31.0038754844       4.95221320078e-05
31.5039379922       6.56885394464e-05
32.0040005001       8.67926584122e-05
32.5040630079       0.000114229819066
33.0041255157       0.000149754230538
33.5041880235       0.000195560808502
34.0042505313       0.000254382751884
34.5043130391       0.000329607140257
35.0043755469       0.000425410959688
35.5044380548       0.000546920056872
36.0045005626       0.000700393552155
36.5045630704       0.000893436192147
37.0046255782       0.00113524097048
37.504688086       0.00143686406746
38.0047505938       0.00181153373155
38.5048131016       0.00227499412329
39.0048756095       0.00284588434115
39.5049381173       0.00354615182834
40.0050006251       0.00440149810136
40.5050631329       0.00544185323385
41.0051256407       0.00670187376945
41.5051881485       0.00822145673036
42.0052506563       0.0100462601535
42.5053131641       0.0122282181555
43.005375672       0.0148260359508
43.5054381798       0.0179056475897
44.0055006876       0.0215406165315
44.5055631954       0.0258124566234
45.0056257032       0.0308108487421
45.505688211       0.0366337264086
46.0057507188       0.0433872022572
46.5058132267       0.0511853064824
47.0058757345       0.060149508472
47.5059382423       0.0704079939067
48.0060007501       0.0820946718147
48.5060632579       0.0953478895403
49.0061257657       0.110308838399
49.5061882735       0.127119639008
50.0062507813       0.145921102903
50.5063132892       0.166850175984
51.006375797       0.190037079535
51.5064383048       0.21560217572
52.0065008126       0.24365259642
52.5065633204       0.274278686629
53.0066258282       0.307550325991
53.506688336       0.343513203999
54.0067508439       0.38218513533
54.5068133517       0.423552511317
55.0068758595       0.467566991006
55.5069383673       0.514142540237
56.0070008751       0.563152929132
56.5070633829       0.614429796915
57.0071258907       0.667761387858
57.5071883985       0.722892053092
58.0072509064       0.779522600013
58.5073134142       0.837311554208
59.007375922       0.895877378427
59.5074384298       0.954801669622
60.0075009376       1.01363332906
60.5075634454       1.07189367269
61.0076259532       1.12908242041
61.5076884611       1.18468447403
62.0077509689       1.23817736666
62.5078134767       1.28903924063
63.0078759845       1.33675718915
63.5079384923       1.38083577914
64.0080010001       1.42080555944
64.5080635079       1.45623135182
65.0081260158       1.48672012075
65.5081885236       1.51192822347
66.0082510314       1.53156785361
66.5083135392       1.5454125095
67.008376047       1.55330134191
67.5084385548       1.5551422646
68.0085010626       1.55091374356
68.5085635704       1.54066521622
69.0086260783       1.52451612941
69.5086885861       1.50265362215
70.0087510939       1.47532891603
70.5088136017       1.44285251072
71.0088761095       1.40558831292
71.5089386173       1.36394685391
72.0090011251       1.31837777248
72.509063633       1.26936175512
73.0091261408       1.21740213516
73.5091886486       1.16301635478
74.0092511564       1.10672749083
74.5093136642       1.04905603541
75.009376172       0.990512107552
75.5094386798       0.931588252431
76.0095011876       0.872752961411
76.5095636955       0.814445019629
77.0096262033       0.757068760061
77.5096887111       0.700990274182
78.0097512189       0.646534600884
78.5098137267       0.593983888175
79.0098762345       0.54357649704
79.5099387423       0.495506994495
80.0100012502       0.449926963872
80.510063758       0.406946544987
81.0101262658       0.366636605444
81.5101887736       0.329031436788
82.0102512814       0.294131865574
82.5103137892       0.261908669369
83.010376297       0.23230619086
83.5104388049       0.205246049289
84.0105013127       0.180630856753
84.5105638205       0.158347857057
85.0106263283       0.138272416215
85.5106888361       0.120271305865
86.0107513439       0.104205733258
86.5108138517       0.0899340837449
87.0108763595       0.0773143533532
87.5109388674       0.0662062598601
88.0110013752       0.0564730304906
88.511063883       0.0479828727941
89.0111263908       0.0406101423263
89.5111888986       0.0342362264238
90.0112514064       0.028750167637
90.5113139142       0.0240490533445
91.0113764221       0.0200381998187
91.5114389299       0.0166311596803
92.0115014377       0.0137495814065
92.5115639455       0.0113229485246
93.0116264533       0.00928822446417
93.5116889611       0.00758942693913
94.0117514689       0.00617715330425
94.5118139767       0.00500807573618
95.0118764846       0.00404442242018
95.5119389924       0.00325345829054
96.0120015002       0.00260697634566
96.512064008       0.00208080820073
97.0121265158       0.00165436039246
97.5121890236       0.00131018103929
98.0122515314       0.00103355980003
98.5123140393       0.000812162665369
99.0123765471       0.000635701954152
99.5124390549       0.00049564095436
100.012501563       0.000384931928598
100.512564071       0.000297785673304
101.012626578       0.00022947045498
101.512689086       0.000176137921343
102.012751594       0.00013467347607
102.512814102       0.000102568590161
103.01287661       7.78125800158e-05
103.512939117       5.88014936645e-05
104.013001625       4.42618961269e-05
104.513064133       3.31875189232e-05
105.013126641       2.47869262414e-05
105.513189149       1.84405421192e-05
106.013251656       1.3665572349e-05
106.513314164       1.00875365143e-05
107.013376672       7.41729602239e-06
107.51343918       5.43262090112e-06
108.013501688       3.96348021738e-06
108.513564196       2.88036780646e-06
109.013626703       2.08508676689e-06
109.513689211       1.50351350997e-06
110.013751719       1.07994601242e-06
110.513814227       7.72712448097e-07
111.013876735       5.50776814285e-07
111.513939242       3.9112879044e-07
112.01400175       2.76787117424e-07
112.514064258       1.9528044381e-07
113.014126766       1.37497947174e-07
113.514189274       9.68250955764e-08
114.014251781       6.84985553635e-08
114.514314289       4.91292592613e-08
115.014376797       3.63547079561e-08
115.514439305       2.85912835407e-08
116.014501813       2.48652201439e-08
116.514564321       2.47073550193e-08
117.014626828       2.81022682004e-08
117.514689336       3.54872665252e-08
118.014751844       4.78012081659e-08
118.514814352       6.65877141779e-08
119.01487686       9.41621929178e-08
119.514939367       1.33857645897e-07
120.015001875       1.90370793832e-07
120.515064383       2.70238067339e-07
121.015126891       3.82480914212e-07
121.515189399       5.3947222319e-07
122.015251906       7.58091077433e-07
122.515314414       1.06125225306e-06
123.015376922       1.47992070192e-06
123.51543943       2.05575065376e-06
124.015501938       2.84452501108e-06
124.515564446       3.92061458042e-06
125.015626953       5.38272968023e-06
125.515689461       7.36130017043e-06
126.015751969       1.00278953917e-05
126.515814477       1.36071843109e-05
127.015876985       1.83920396993e-05
127.515939492       2.4762509597e-05
128.016002       3.32095155493e-05
128.516064508       4.43642905594e-05
129.016127016       5.90347402494e-05
129.516189524       7.82500973143e-05
130.016252032       0.000103315439941
130.516314539       0.000135877856005
131.016377047       0.000178006251536
131.516439555       0.000232287017193
132.016502063       0.000301937971186
132.516564571       0.000390943179666
133.016627078       0.000504211401811
133.516689586       0.000647760999711
134.016752094       0.000828934172868
134.516814602       0.00105664330125
135.01687711       0.00134165198449
135.516939617       0.00169689302147
136.017002125       0.0021378250561
136.517064633       0.00268282889426
137.017127141       0.00335364354677
137.517189649       0.00417584085028
138.017252157       0.00517933604351
138.517314664       0.00639892991895
139.017377172       0.00787487612611
139.51743968       0.00965346488333
140.017502188       0.0117876117822
140.517564696       0.0143374375845
141.017627203       0.0173708219723
141.517689711       0.0209639112006
142.017752219       0.0252015566139
142.517814727       0.0301776581468
143.017877235       0.0359953843781
143.517939742       0.0427672385977
144.01800225       0.0506149388569
144.518064758       0.0596690792786
145.018127266       0.0700685401916
145.518189774       0.0819596160903
146.018252282       0.0954948331764
146.518314789       0.110831432435
147.018377297       0.128129499938
147.518439805       0.147549733381
148.018502313       0.169250842791
148.518564821       0.193386593687
149.018627328       0.22010251277
149.518689836       0.249532289
150.018752344       0.281793916603
150.518814852       0.316985640515
151.01887736       0.355181778752
151.518939867       0.396428509517
152.019002375       0.440739722992
152.519064883       0.488093048157
153.019127391       0.538426172944
153.519189899       0.59163358105
154.019252407       0.647563830285
154.519314914       0.70601749493
155.019377422       0.766745887957
155.51943993       0.8294506679
156.019502438       0.893784419654
156.519564946       0.959352278665
157.019627453       1.02571464424
157.519689961       1.0923910005
158.019752469       1.15886483366
158.519814977       1.22458960261
159.019877485       1.28899568721
159.519939992       1.35149820677
160.0200025       1.41150557008
160.520065008       1.46842859085
161.020127516       1.52168997781
161.520190024       1.5707339898
162.020252532       1.61503603253
162.520315039       1.65411196684
163.020377547       1.68752689843
163.520440055       1.71490322639
164.020502563       1.7359277424
164.520565071       1.75035759428
165.020627578       1.75802495492
165.520690086       1.75884027123
166.020752594       1.75279400516
166.520815102       1.73995681939
167.02087761       1.72047820281
167.520940118       1.69458357286
168.021002625       1.66256993366
168.521065133       1.6248002065
169.021127641       1.58169638424
169.521190149       1.53373168991
170.021252657       1.48142194321
170.521315164       1.42531635465
171.021377672       1.36598797628
171.52144018       1.30402403992
172.021502688       1.24001640826
172.521565196       1.17455235247
173.021627703       1.10820585196
173.521690211       1.04152958862
174.021752719       0.97504778113
174.521815227       0.909249974214
175.021877735       0.844585866323
175.521940243       0.781461226284
176.02200275       0.720234917709
176.522065258       0.661217019494
177.022127766       0.604668002853
177.522190274       0.550798900708
178.022252782       0.499772384491
178.522315289       0.451704646849
179.022377797       0.406667976614
179.522440305       0.364693904755
180.022502813       0.325776796623
180.522565321       0.289877766482
181.022627828       0.256928794521
181.522690336       0.226836933899
182.022752844       0.199488505207
182.522815352       0.174753187549
183.02287786       0.152487928515
183.522940368       0.132540609195
184.023002875       0.114753414428
184.523065383       0.0989658722292
185.023127891       0.0850175394159
185.523190399       0.0727503224839
186.023252907       0.062010433507
186.523315414       0.0526499901272
187.023377922       0.0445282764097
187.52344043       0.0375126874708
188.023502938       0.0314793853628
188.523565446       0.0263136968168
189.023627953       0.0219102852141
189.523690461       0.0181731297454
190.023752969       0.0150153442948
190.523815477       0.0123588673298
191.023877985       0.0101340521803
191.523940493       0.0082791847214
192.024003       0.00673995279368
192.524065508       0.00546888886544
193.024128016       0.00442480456783
193.524190524       0.00357223294417
194.024253032       0.00288089161975
194.524315539       0.00232517768826
195.024378047       0.00188370296782
195.524440555       0.00153887642841
196.024503063       0.00127653904373
196.524565571       0.00108565506649
197.024628079       0.000958062751822
197.524690586       0.000888286828409
198.024753094       0.000873414506693
198.524815602       0.000913036473463
199.02487811       0.00100925410493
199.524940618       0.00116675398285
200.025003125       0.00139295066545
200.525065633       0.00169819848975
201.025128141       0.00209607290683
201.525190649       0.00260372141911
202.025253157       0.00324228354494
202.525315664       0.00403737832717
203.025378172       0.00501965668523
203.52544068       0.00622541434343
204.025503188       0.00769725912555
204.525565696       0.00948482406971
205.025628204       0.0116455150895
205.525690711       0.0142452788054
206.025753219       0.0173593727363
206.525815727       0.0210731163378
207.025878235       0.0254825974979
207.525940743       0.0306953051641
208.02600325       0.0368306549398
208.526065758       0.044020370913
209.026128266       0.0524086838842
209.526190774       0.0621523037522
210.026253282       0.0734201223461
210.526315789       0.0863926026943
211.026378297       0.101260811843
211.526440805       0.118225057111
212.026503313       0.137493090264
212.526565821       0.159277850744
213.026628329       0.183794727744
213.526690836       0.211258331827
214.026753344       0.241878779657
214.526815852       0.27585751024
215.02687836       0.313382667601
215.526940868       0.354624102542
216.027003375       0.399728064775
216.527065883       0.44881167551
217.027128391       0.501957289003
217.527190899       0.559206868775
218.027253407       0.620556519468
218.527315914       0.685951327776
219.027378422       0.755280674806
219.52744093       0.828374186782
220.027503438       0.904998490653
220.527565946       0.984854935277
221.027628454       1.06757842717
221.527690961       1.15273751212
222.027753469       1.23983581038
222.527815977       1.32831488405
223.027878485       1.41755858104
223.527940993       1.50689886181
224.0280035       1.59562307373
224.528066008       1.68298259458
225.028128516       1.76820272335
225.528191024       1.85049365401
226.028253532       1.92906232833
226.52831604       2.00312492857
227.028378547       2.07191974158
227.528441055       2.13472010325
228.028503563       2.1908471189
228.528566071       2.23968184978
229.028628579       2.28067666118
229.528691086       2.31336544196
230.028753594       2.33737242967
230.528816102       2.35241940839
231.02887861       2.35833108752
231.528941118       2.35503851753
232.029003625       2.34258045141
232.529066133       2.32110261652
233.029128641       2.29085491921
233.529191149       2.25218666135
234.029253657       2.20553990203
234.529316165       2.15144114793
235.029378672       2.09049159979
235.52944118       2.02335621882
236.029503688       1.95075190552
236.529566196       1.87343510244
237.029628704       1.79218914236
237.529691211       1.70781166413
238.029753719       1.62110241012
238.529816227       1.53285170348
239.029878735       1.44382988016
239.529941243       1.3547779223
240.03000375       1.26639950706
240.530066258       1.17935464987
241.030128766       1.09425508525
241.530191274       1.01166149286
242.030253782       0.932082643513
242.53031629       0.855976509343
243.030378797       0.783753356572
243.530441305       0.715780817865
244.030503813       0.652390924761
244.530566321       0.593889069091
245.030628829       0.540564854985
245.530691336       0.492704799316
246.030753844       0.45060683705
246.530816352       0.41459658755
247.03087886       0.385045336721
247.530941368       0.362389686145
248.031003875       0.347152812147
248.531066383       0.339967262963
249.031128891       0.34159919913
249.531191399       0.352973949072
250.031253907       0.375202707238
250.531316415       0.409610145061
251.031378922       0.457762634955
251.53144143       0.521496704645
252.031503938       0.602947244212
252.531566446       0.704574883044
253.031628954       0.829191840826
253.531691461       0.979985439449
254.031753969       1.16053834552
254.531816477       1.37484450149
255.031878985       1.62731960319
255.531941493       1.92280490012
256.032004001       2.2665630388
256.532066508       2.66426464712
257.032129016       3.12196437631
257.532191524       3.64606518342
258.032254032       4.24326975857
258.53231654       4.92051818127
259.032379047       5.68491113316
259.532441555       6.54361830165
260.032504063       7.50377197782
260.532566571       8.5723462794
261.032629079       9.75602290745
261.532691586       11.061044863
262.032754094       12.493060093
262.532816602       14.056957587
263.03287911       15.7566989865
263.532941618       17.5951492756
264.033004126       19.5739105737
