#  x                 y             frequency           intensity
0.0       4.88549076177e-16       67.52       1.43578
0.500062507813       8.26377971779e-16       116.94       11.84985
1.00012501563       1.39236270019e-15       200.35       23.42974
1.50018752344       2.33684088323e-15       245.89       112.21487
2.00025003125       3.90669059111e-15       283.49       22.29368
2.50031253907       6.5056696129e-15       321.43       3.28854
3.00037504688       1.07914078008e-14       371.31       11.13012
3.50043755469       1.78306558622e-14       428.04       9.84788
4.00050006251       2.93467251415e-14       526.49       0.72638
4.50056257032       4.81121853615e-14       613.69       20.99313
5.00062507813       7.85694361381e-14       736.95       9.55755
5.50068758595       1.27807194522e-13       852.71       86.05357
6.00075009376       2.07090454005e-13       859.93       19.99214
6.50081260158       3.34247349117e-13       887.17       71.43831
7.00087510939       5.37376878115e-13       964.12       56.56611
7.5009376172       8.60583655052e-13       1047.56       108.02141
8.00100012502       1.37280965106e-12       1089.49       28.66808
8.50106263283       2.181376685e-12       1111.67       42.22483
9.00112514064       3.45266246383e-12       1187.50       3.44158
9.50118764846       5.44353090104e-12       1212.91       13.73612
10.0012501563       8.54890271437e-12       1237.63       26.98153
10.5013126641       1.33734411261e-11       1271.81       2.57088
11.0013751719       2.08391057435e-11       1315.90       12.52023
11.5014376797       3.23458150995e-11       1402.21       21.59842
12.0015001875       5.00103891362e-11       1413.70       394.60283
12.5015626953       7.7020348798e-11       1444.03       1.95702
13.0016252032       1.18155472497e-10       1519.12       2.76223
13.501687711       1.80553251741e-10       1665.89       36.62708
14.0017502188       2.74827318579e-10       1834.74       311.61810
14.5018127266       4.16694338361e-10       2977.95       44.24910
15.0018752344       6.29329966534e-10       3043.02       6.74780
15.5019377422       9.46765310449e-10       3073.78       19.80662
16.00200025       1.41876143554e-09       3447.24       252.16214
16.5020627578       2.11777358062e-09       3487.43       0.72658
17.0021252657       3.14885592605e-09       3572.86       10.88814
17.5021877735       4.66368455056e-09       3816.76       41.06255
18.0022502813       6.88032031364e-09
18.5023127891       1.01109336467e-08
19.0023752969       1.48005200755e-08
19.5024378047       2.15807138047e-08
20.0025003125       3.13442402373e-08
20.5025628204       4.53474428625e-08
21.0026253282       6.53508092986e-08
21.502687836       9.3810672899e-08
22.0027503438       1.34139488223e-07
22.5028128516       1.91057526962e-07
23.0028753594       2.71065828181e-07
23.5029378672       3.83079140835e-07
24.003000375       5.39268869726e-07
24.5030628829       7.5618021377e-07
25.0031253907       1.05620539438e-06
25.5031878985       1.46951683592e-06
26.0032504063       2.03659120456e-06
26.5033129141       2.81148826175e-06
27.0033754219       3.86608856226e-06
27.5034379297       5.29554222284e-06
28.0035004376       7.22523845766e-06
28.5035629454       9.81967349261e-06
29.0036254532       1.32936739665e-05
29.503687961       1.7926525036e-05
30.0037504688       2.40796579585e-05
30.5038129766       3.22186714628e-05
31.0038754844       4.29405948102e-05
31.5039379922       5.70074475812e-05
32.0040005001       7.53873105693e-05
32.5040630079       9.93042914031e-05
33.0041255157       0.00013029894411
33.5041880235       0.00017030087876
34.0042505313       0.000221715468885
34.5043130391       0.000287526721943
35.0043755469       0.000371418510966
35.5044380548       0.000477916460746
36.0045005626       0.000612552824226
36.5045630704       0.000782056656758
37.0046255782       0.000994571477944
37.504688086       0.00125990238176
38.0047505938       0.0015897941932
38.5048131016       0.00199824175083
39.0048756095       0.00250183269743
39.5049381173       0.00312012226479
40.0050006251       0.00387603842655
40.5050631329       0.00479631445288
41.0051256407       0.00591194432695
41.5051881485       0.00725865467994
42.0052506563       0.00887738488194
42.5053131641       0.0108147647189
43.005375672       0.0131235767314
43.5054381798       0.0158631878492
44.0055006876       0.0190999324965
44.5055631954       0.0229074269647
45.0056257032       0.0273667926577
45.505688211       0.0325667639264
46.0057507188       0.0386036547786
46.5058132267       0.0455811578984
47.0058757345       0.0536099493028
47.5059382423       0.0628070727445
48.0060007501       0.073295079763
48.5060632579       0.0852009042274
49.0061257657       0.09865445438
49.5061882735       0.113786910842
50.0062507813       0.130728725794
50.5063132892       0.149607326531
51.006375797       0.17054453578
51.5064383048       0.193653731264
52.0065008126       0.21903677792
52.5065633204       0.24678077755
53.0066258282       0.276954692085
53.506688336       0.309605907827
54.0067508439       0.344756818386
54.5068133517       0.382401513127
55.0068758595       0.422502665303
55.5069383673       0.464988719215
56.0070008751       0.50975147812
56.5070633829       0.556644194078
57.0071258907       0.605480256864
57.5071883985       0.656032571573
58.0072509064       0.708033703327
58.5073134142       0.761176852715
59.007375922       0.815117707482
59.5074384298       0.86947719487
60.0075009376       0.923845135447
60.5075634454       0.97778477389
61.0076259532       1.03083813585
61.5076884611       1.08253213353
62.0077509689       1.13238531695
62.5078134767       1.17991514403
63.0078759845       1.22464562158
63.5079384923       1.26611515168
64.0080010001       1.30388440521
64.5080635079       1.33754403622
65.0081260158       1.36672204872
65.5081885236       1.39109063086
66.0082510314       1.41037228146
66.5083135392       1.42434506868
67.008376047       1.43284688168
67.5084385548       1.43577856135
68.0085010626       1.43310582571
68.5085635704       1.42485993756
69.0086260783       1.41113709651
69.5086885861       1.39209657171
70.0087510939       1.36795762634
70.5088136017       1.3389953168
71.0088761095       1.30553527946
71.5089386173       1.26794764324
72.0090011251       1.22664022746
72.509063633       1.18205119976
73.0091261408       1.1346413792
73.5091886486       1.08488637327
74.0092511564       1.0332687359
74.5093136642       0.980270325947
75.009376172       0.926365033317
75.5094386798       0.872012022499
76.0095011876       0.817649622978
76.5095636955       0.763689972381
77.0096262033       0.710514493104
77.5096887111       0.658470257176
78.0097512189       0.607867268315
78.5098137267       0.558976665372
79.0098762345       0.512029828477
79.5099387423       0.46721834886
80.0100012502       0.42469480604
80.510063758       0.384574282275
81.0101262658       0.346936534031
81.5101887736       0.311828733834
82.0102512814       0.279268693129
82.5103137892       0.249248477471
83.010376297       0.221738329126
83.5104388049       0.1966908186
84.0105013127       0.174045155135
84.5105638205       0.153731596302
85.0106263283       0.135675907885
85.5106888361       0.11980383658
86.0107513439       0.106045569175
86.5108138517       0.0943401620908
87.0108763595       0.084639934057
87.5109388674       0.0769148216348
88.0110013752       0.0711567020233
88.511063883       0.0673836895877
89.0111263908       0.065644411673
89.5111888986       0.0660222652801
90.0112514064       0.0686396490151
90.5113139142       0.0736621543955
91.0113764221       0.0813026872431
91.5114389299       0.091825473766
92.0115014377       0.105549887404
92.5115639455       0.122854012109
93.0116264533       0.144177836079
93.5116889611       0.170025947884
94.0117514689       0.20096958529
94.5118139767       0.237647866985
95.0118764846       0.28076801995
95.5119389924       0.331104401682
96.0120015002       0.389496108081
96.512064008       0.456842955884
97.0121265158       0.534099634306
97.5121890236       0.622267835118
98.0122515314       0.722386194763
98.5123140393       0.835517916968
99.0123765471       0.962735990004
99.5124390549       1.10510596939
100.012501563       1.26366636386
100.512564071       1.43940673896
101.012626578       1.63324373723
101.512689086       1.84599530432
102.012751594       2.07835350468
102.512814102       2.33085640429
103.01287661       2.60385958942
103.512939117       2.89750797442
104.013001625       3.2117086246
104.513064133       3.54610537835
105.013126641       3.90005609153
105.513189149       4.27261334354
106.013251656       4.66250943474
106.513314164       5.06814646726
107.013376672       5.48759223413
107.51343918       5.91858254368
108.013501688       6.35853048013
108.513564196       6.80454294662
109.013626703       7.25344465961
109.513689211       7.7018095656
110.013751719       8.14599944052
110.513814227       8.58220921353
111.013876735       9.00651833942
111.513939242       9.41494733378
112.01400175       9.80351839197
112.514064258       10.1683188434
113.014126766       10.5055660548
113.514189274       10.8116722955
114.014251781       11.0833080215
114.514314289       11.3174620245
115.014376797       11.511496929
115.514439305       11.6631986104
116.014501813       11.7708182396
116.514564321       11.8331058379
117.014626828       11.849334442
117.514689336       11.8193142265
118.014751844       11.7433961992
118.514814352       11.6224653706
119.01487686       11.4579235803
119.514939367       11.2516624496
120.015001875       11.006027188
120.515064383       10.7237722214
121.015126891       10.4080098176
121.515189399       10.062153045
122.015251906       9.68985452684
122.515314414       9.29494252073
123.015376922       8.88135588147
123.51543943       8.45307943702
124.015501938       8.01408123939
124.515564446       7.5682530388
125.015626953       7.11935518209
125.515689461       6.67096695858
126.015751969       6.22644321776
126.515814477       5.78887786968
127.015876985       5.36107466072
127.515939492       4.94552539977
128.016002       4.5443956028
128.516064508       4.15951733102
129.016127016       3.79238882676
129.516189524       3.44418040496
130.016252032       3.11574593976
130.516314539       2.8076391971
131.016377047       2.52013420576
131.516439555       2.25324882982
132.016502063       2.00677070398
132.516564571       1.78028471617
133.016627078       1.57320126701
133.516689586       1.38478459814
134.016752094       1.21418055845
134.516814602       1.06044326375
135.01687711       0.922560197558
135.516939617       0.799475395861
136.017002125       0.69011045152
136.517064633       0.593383163642
137.017127141       0.508223739814
137.517189649       0.433588533607
138.017252157       0.368471364457
138.517314664       0.311912521456
139.017377172       0.263005596163
139.51743968       0.220902322678
140.017502188       0.184815626221
140.517564696       0.154021095146
141.017627203       0.127857096826
141.517689711       0.105723756035
142.017752219       0.0870810068554
142.517814727       0.071445916707
143.017877235       0.0583894651768
143.517939742       0.0475329419886
144.01800225       0.0385441086732
144.518064758       0.0311332482054
145.018127266       0.0250492067718
145.518189774       0.0200755125308
146.018252282       0.0160266381939
146.518314789       0.0127444578022
147.018377297       0.0100949334278
147.518439805       0.00796505478132
148.018502313       0.00626004389193
148.518564821       0.00490082807801
149.018627328       0.00382177725027
149.518689836       0.00296869603187
150.018752344       0.00229705707656
150.518814852       0.00177045912909
151.01887736       0.00135929161567
151.518939867       0.00103958669323
152.019002375       0.000792039551004
152.519064883       0.000601178189735
153.019127391       0.000454664761321
153.519189899       0.000342711713614
154.019252407       0.000257597349718
154.519314914       0.000193266894689
155.019377422       0.000145006699895
155.51943993       0.000109180757577
156.019502438       8.30202108835e-05
156.519564946       6.44580067778e-05
157.019627453       5.20022403909e-05
157.519689961       4.46430790866e-05
158.019752469       4.17894397911e-05
158.519814977       4.32328377363e-05
159.019877485       4.91370474546e-05
159.519939992       6.0053440502e-05
160.0200025       7.69631147632e-05
160.520065008       0.000101348235061
161.020127516       0.000135296392807
161.520190024       0.00018164329209
162.020252532       0.000244160707866
162.520315039       0.000327798463086
163.020377547       0.000438991155031
163.520440055       0.00058604253987
164.020502563       0.000779602862322
164.520565071       0.00103325698626
165.020627578       0.00136424391945
165.520690086       0.00179433118975
166.020752594       0.00235087045845
166.520815102       0.00306806365849
167.02087761       0.00398847170445
167.520940118       0.00516480028394
168.021002625       0.00666199922078
168.521065133       0.00855971317473
169.021127641       0.0109551217481
169.521190149       0.0139662061107
170.021252657       0.0177354766991
170.521315164       0.0224341920445
171.021377672       0.0282670919609
171.52144018       0.035477658816
172.021502688       0.0443539080568
172.521565196       0.0552346932512
173.021627703       0.0685164913919
173.521690211       0.0846606109151
174.021752719       0.104200737799
174.521815227       0.127750704318
175.021877735       0.15601233088
175.521940243       0.189783154352
176.02200275       0.229963817218
176.522065258       0.27756485178
177.022127766       0.333712553826
177.522190274       0.399653602258
178.022252782       0.476758047018
178.522315289       0.566520259371
179.022377797       0.670557418477
179.522440305       0.790605098557
180.022502813       0.928509524343
180.522565321       1.08621608117
181.022627828       1.26575370211
181.522690336       1.4692148099
182.022752844       1.69873056708
182.522815352       1.95644128472
183.02287786       2.24446195793
183.522940368       2.56484303434
184.023002875       2.91952667721
184.523065383       3.31029895582
185.023127891       3.73873857654
185.523190399       4.20616295519
186.023252907       4.71357261646
186.523315414       5.26159508464
187.023377922       5.85042959202
187.52344043       6.47979407047
188.023502938       7.14887599893
188.523565446       7.8562887479
189.023627953       8.60003508392
189.523690461       9.37747946701
190.023752969       10.1853306875
190.523815477       11.0196362433
191.023877985       11.8757896538
191.523940493       12.7485516449
192.024003       13.6320858239
192.524065508       14.520009104
193.024128016       15.40545674
193.524190524       16.281161415
194.024253032       17.139545387
194.524315539       17.9728242734
195.024378047       18.7731206439
195.524440555       19.5325852152
196.024503063       20.2435231213
196.524565571       20.8985224707
197.024628079       21.4905822226
197.524690586       22.0132363183
198.024753094       22.4606710029
198.524815602       22.8278323686
199.02487811       23.1105213405
199.524940618       23.3054736137
200.025003125       23.4104224139
200.525065633       23.4241423988
201.025128141       23.3464735133
201.525190649       23.178324155
202.025253157       22.921653566
202.525315664       22.5794339385
203.025378172       22.1555932657
203.52544068       21.6549404896
204.025503188       21.0830749536
204.525565696       20.446282565
205.025628204       19.7514213826
205.525690711       19.0057995695
206.025753219       18.2170487778
206.525815727       17.3929960664
207.025878235       16.5415373892
207.525940743       15.6705155421
208.02600325       14.7876052279
208.526065758       13.9002075996
209.026128266       13.0153562952
209.526190774       12.139636582
210.026253282       11.2791188218
210.526315789       10.4393070415
211.026378297       9.62510298671
211.526440805       8.84078563842
212.026503313       8.09000581955
212.526565821       7.37579519734
213.026628329       6.7005887239
213.526690836       6.06625934301
214.026753344       5.47416363514
214.526815852       4.92519696993
215.02687836       4.4198566849
215.526940868       3.95831180433
216.027003375       3.54047784623
216.527065883       3.16609533028
217.027128391       2.83481068488
217.527190899       2.54625834901
218.027253407       2.30014296329
218.527315914       2.09632063703
219.027378422       1.93487835437
219.52744093       1.81621063786
220.027503438       1.74109261578
220.527565946       1.71074863736
221.027628454       1.72691554736
221.527690961       1.7918996687
222.027753469       1.90862645315
222.527815977       2.08068165119
223.027878485       2.31234273085
223.527940993       2.60859915208
224.0280035       2.97515998896
224.528066008       3.41844730033
225.028128516       3.94557359375
225.528191024       4.56430172177
226.028253532       5.28298560761
226.52831604       6.11049033137
227.028378547       7.05609032914
227.528441055       8.12934477397
228.028503563       9.33994962454
228.528566071       10.6975663456
229.028628579       12.2116279205
229.528691086       13.8911234815
230.028753594       15.7443636645
230.528816102       17.7787296319
231.02887861       20.0004095761
231.528941118       22.414127385
232.029003625       25.022868994
232.529066133       27.8276127132
233.029128641       30.8270704907
233.529191149       34.0174475827
234.029253657       37.3922284443
234.529316165       40.9419967679
235.029378672       44.6542974709
235.52944118       48.5135480393
236.029503688       52.5010059562
236.529566196       56.5947979869
237.029628704       60.7700158558
237.529691211       64.9988813636
238.029753719       69.2509822806
238.529816227       73.4935784669
239.029878735       77.6919756584
239.529941243       81.8099622912
240.03000375       85.8103026812
240.530066258       89.6552779074
241.030128766       93.3072639453
241.530191274       96.7293350286
242.030253782       99.8858789577
242.53031629       102.743210179
243.030378797       105.270165974
243.530441305       107.438671066
244.030503813       109.224256369
244.530566321       110.606518507
245.030628829       111.569508054
245.530691336       112.102036169
246.030753844       112.197891431
246.530816352       111.855961006
247.03087886       111.08025288
247.530941368       109.879818587
248.031003875       108.268578559
248.531066383       106.265054882
249.031128891       103.89201869
249.531191399       101.176061689
250.031253907       98.1471031655
250.531316415       94.837845376
251.031378922       91.283191287
251.53144143       87.519639267
252.031503938       83.5846694973
252.531566446       79.5161365748
253.031628954       75.3516820547
253.531691461       71.12817957
254.031753969       66.8812237134
254.531816477       62.6446721509
255.031878985       58.4502485134
255.531941493       54.3272115734
256.032004001       50.3020941193
256.532066508       46.3985128726
257.032129016       42.6370488198
257.532191524       39.0351955008
258.032254032       35.6073711754
258.53231654       32.3649894014
259.032379047       29.3165814367
259.532441555       26.4679630405
260.032504063       23.8224376911
260.532566571       21.3810279617
261.032629079       19.1427267751
261.532691586       17.1047604826
262.032754094       15.2628561361
262.532816602       13.6115059285
263.03287911       12.1442225155
263.532941618       10.8537797762
264.033004126       9.73243448001
264.533066633       8.77212527033
265.033129141       7.96464632443
265.533191649       7.30179397257
266.033254157       6.77548544229
266.533316665       6.37784971231
267.033379172       6.10129120568
267.53344168       5.93852771201
268.033504188       5.88260449885
268.533566696       5.92688704933
269.033629204       6.06503524674
269.533691711       6.29096211747
