#  x                 y             frequency           intensity
0.0       3.416936938e-08       48.73       3.89513
0.500062507813       4.99052753723e-08       104.96       2.04164
1.00012501563       7.26037515526e-08       191.48       2.40531
1.50018752344       1.05214302538e-07       251.38       14.16444
2.00025003125       1.51877560313e-07       267.04       52.20758
2.50031253907       2.18381355244e-07       299.19       30.55075
3.00037504688       3.12781180495e-07       326.88       85.43569
3.50043755469       4.46240295999e-07       448.79       12.28259
4.00050006251       6.34161786377e-07       523.23       11.31962
4.50056257032       8.97706697031e-07       591.39       102.44310
5.00062507813       1.26582006228e-06       607.23       39.51606
5.50068758595       1.77792156284e-06       763.29       21.23724
6.00075009376       2.48746129964e-06       799.72       36.86463
6.50081260158       3.46659559739e-06       855.66       144.72503
7.00087510939       4.81230497583e-06       979.88       18.86772
7.5009376172       6.65435884473e-06       1011.80       65.98373
8.00100012502       9.16563174971e-06       1075.23       104.29996
8.50106263283       1.25753970135e-05       1115.71       9.79660
9.00112514064       1.71863684552e-05       1148.82       21.34370
9.50118764846       2.33964326988e-05       1165.58       145.58535
10.0012501563       3.17262165398e-05       1268.61       16.25950
10.5013126641       4.28538688776e-05       1336.47       22.56827
11.0013751719       5.76587073595e-05       1346.29       6.95010
11.5014376797       7.72756879577e-05       1366.93       16.07725
12.0015001875       0.000103163002       1405.26       15.99227
12.5015626953       0.000137185489027       1418.29       15.05012
13.0016252032       0.000181716972665       1504.08       1.62812
13.501687711       0.00023976507541       1664.03       34.97946
14.0017502188       0.00031512253867       1812.31       303.16153
14.5018127266       0.000412549554805       3024.86       42.53499
15.0018752344       0.00053799209205       3060.86       5.36995
15.5019377422       0.000698841640008       3094.58       26.64487
16.00200025       0.000904242196248       3494.28       1.92958
16.5020627578       0.00116545062096       3572.13       5.66655
17.0021252657       0.00149625666777       3729.99       69.54456
17.5021877735       0.00191346901003       3791.22       28.83154
18.0022502813       0.00243747337239
18.5023127891       0.00309286839134
19.0023752969       0.00390918400634
19.5024378047       0.00492168596353
20.0025003125       0.0061722683348
20.5025628204       0.00771043375963
21.0026253282       0.00959435835376
21.502687836       0.0118920348586
22.0027503438       0.0146824836053
22.5028128516       0.0180570162373
23.0028753594       0.0221205318977
23.5029378672       0.0269928198063
24.003000375       0.0328098359172
24.5030628829       0.0397249147985
25.0031253907       0.0479098712025
25.5031878985       0.0575559392124
26.0032504063       0.068874490652
26.5033129141       0.0820974689313
27.0033754219       0.0974774700446
27.5034379297       0.115287399409
28.0035004376       0.135819632038
28.5035629454       0.159384604593
29.0036254532       0.186308771502
29.503687961       0.216931863987
30.0037504688       0.251603400659
30.5038129766       0.290678411685
31.0038754844       0.334512355324
31.5039379922       0.383455225925
32.0040005001       0.437844876021
32.5040630079       0.497999601616
33.0041255157       0.564210068514
33.5041880235       0.636730687953
34.0042505313       0.715770580859
34.5043130391       0.801484300801
35.0043755469       0.893962514856
35.5044380548       0.99322286794
36.0045005626       1.0992012783
36.5045630704       1.21174392849
37.0046255782       1.33060022608
37.504688086       1.45541701023
38.0047505938       1.58573427346
38.5048131016       1.72098265179
39.0048756095       1.86048290975
39.5049381173       2.00344761144
40.0050006251       2.14898512281
40.5050631329       2.29610603667
41.0051256407       2.44373205054
41.5051881485       2.59070726055
42.0052506563       2.73581176372
42.5053131641       2.87777738941
43.005375672       3.01530530931
43.5054381798       3.14708520859
44.0055006876       3.27181564011
44.5055631954       3.38822513163
45.0056257032       3.49509357539
45.505688211       3.59127340227
46.0057507188       3.67571002974
46.5058132267       3.74746107585
47.0058757345       3.80571385091
47.5059382423       3.84980067313
48.0060007501       3.87921160492
48.5060632579       3.89360427024
49.0061257657       3.89281048864
49.5061882735       3.87683954641
50.0062507813       3.84587801569
50.5063132892       3.80028612669
51.006375797       3.74059079145
51.5064383048       3.66747546816
52.0065008126       3.5817671386
52.5065633204       3.48442074553
53.0066258282       3.3765014994
53.506688336       3.25916551221
54.0067508439       3.13363924995
54.5068133517       3.00119831217
55.0068758595       2.86314604892
55.5069383673       2.72079251085
56.0070008751       2.57543419918
56.5070633829       2.42833504082
57.0071258907       2.28070896083
57.5071883985       2.13370436276
58.0072509064       1.98839076031
58.5073134142       1.84574773196
59.007375922       1.70665629891
59.5074384298       1.57189275577
60.0075009376       1.44212491741
60.5075634454       1.31791068437
61.0076259532       1.19969877659
61.5076884611       1.08783144022
62.0077509689       0.982548897816
62.5078134767       0.883995286716
63.0078759845       0.792225815357
63.5079384923       0.707214861287
64.0080010001       0.628864737616
64.5080635079       0.557014865293
65.0081260158       0.491451105969
65.5081885236       0.431915032916
66.0082510314       0.378112944265
66.5083135392       0.329724452326
67.008376047       0.286410513703
67.5084385548       0.24782079612
68.0085010626       0.213600308323
68.5085635704       0.183395248167
69.0086260783       0.156858050369
69.5086885861       0.133651638884
70.0087510939       0.113452909
70.5088136017       0.0959554809848
71.0088761095       0.0808717802782
71.5089386173       0.067934508995
72.0090011251       0.056897580015
72.509063633       0.0475365884943
73.0091261408       0.0396488965478
73.5091886486       0.0330534055006
74.0092511564       0.0275900868543
74.5093136642       0.0231193383438
75.009376172       0.0195212255104
75.5094386798       0.0166946624208
76.0095011876       0.0145565777895
76.5095636955       0.0130411050645
77.0096262033       0.0120988272004
77.5096887111       0.0116960990265
78.0097512189       0.0118144624426
78.5098137267       0.0124501622157
79.0098762345       0.0136137629836
79.5099387423       0.0153298612251
80.0100012502       0.0176368794849
80.510063758       0.0205869240698
81.0101262658       0.0242456818081
81.5101887736       0.028692326353
82.0102512814       0.0340193999724
82.5103137892       0.0403326329147
83.010376297       0.0477506593759
83.5104388049       0.0564045869658
84.0105013127       0.0664373755169
84.5105638205       0.0780029812812
85.0106263283       0.0912652241545
85.5106888361       0.106396338729
86.0107513439       0.123575174822
86.5108138517       0.142985019765
87.0108763595       0.164811023199
87.5109388674       0.189237215445
88.0110013752       0.216443122535
88.511063883       0.246599994638
89.0111263908       0.279866679576
89.5111888986       0.316385189058
90.0112514064       0.35627602177
90.5113139142       0.399633323984
91.0113764221       0.446519984322
91.5114389299       0.496962774033
92.0115014377       0.550947657011
92.5115639455       0.608415404006
93.0116264533       0.669257652416
93.5116889611       0.733313556127
94.0117514689       0.800367168459
94.5118139767       0.870145695015
95.0118764846       0.942318741914
95.5119389924       1.01649866829
96.0120015002       1.09224213041
96.512064008       1.16905287825
97.0121265158       1.24638583521
97.5121890236       1.32365245735
98.0122515314       1.40022733255
98.5123140393       1.47545594229
99.0123765471       1.54866347123
99.5124390549       1.61916451345
100.012501563       1.68627349093
100.512564071       1.74931557012
101.012626578       1.80763783893
101.512689086       1.86062048838
102.012751594       1.90768773325
102.512814102       1.94831820403
103.01287661       1.98205454845
103.512939117       2.00851199561
104.013001625       2.02738565884
104.513064133       2.03845638332
105.013126641       2.04159498177
105.513189149       2.0367647437
106.013251656       2.02402215017
106.513314164       2.0035157744
107.013376672       1.97548339843
107.51343918       1.94024742379
108.013501688       1.89820870021
108.513564196       1.8498389375
109.013626703       1.79567190121
109.513689211       1.73629362197
110.013751719       1.67233186892
110.513814227       1.6044451511
111.013876735       1.53331151476
111.513939242       1.4596174008
112.01400175       1.38404681473
112.514064258       1.30727104249
113.014126766       1.2299391202
113.514189274       1.15266923564
114.014251781       1.07604120487
114.514314289       1.00059013099
115.014376797       0.926801314248
115.514439305       0.855106445246
116.014501813       0.785881077232
116.514564321       0.719443340079
117.014626828       0.656053828956
117.514689336       0.595916575262
118.014751844       0.539180986792
118.514814352       0.485944628637
119.01487686       0.436256705987
119.514939367       0.390122104767
120.015001875       0.34750584552
120.515064383       0.308337809795
121.015126891       0.272517605876
121.515189399       0.239919451373
122.015251906       0.210396963344
122.515314414       0.183787761454
123.015376922       0.159917805602
123.51543943       0.138605405715
124.015501938       0.119664857525
124.515564446       0.102909673592
125.015626953       0.0881553930931
125.515689461       0.0752219668652
126.015751969       0.0639357253398
126.515814477       0.0541309465193
127.015876985       0.0456510487044
127.515939492       0.038349438473
128.016002       0.0320900484471
128.516064508       0.0267476018112
129.016127016       0.0222076415413
129.516189524       0.0183663620544
130.016252032       0.0151302797083
130.516314539       0.0124157764741
131.016377047       0.010148548386
131.516439555       0.00826298722178
132.016502063       0.00670152047217
132.516564571       0.00541393115897
133.016627078       0.00435667559481
133.516689586       0.00349221384527
134.016752094       0.00278836453485
134.516814602       0.00221769279197
135.01687711       0.00175693758979
135.516939617       0.00138648253005
136.017002125       0.00108987223848
136.517064633       0.000853374985288
137.017127141       0.000665590894703
137.517189649       0.000517104138114
138.017252157       0.000400176787599
138.517314664       0.000308481508132
139.017377172       0.000236869955629
139.51743968       0.00018117359215
140.017502188       0.000138033599326
140.517564696       0.000104756638686
141.017627203       7.91933486074e-05
141.517689711       5.96366606965e-05
142.017752219       4.47372454314e-05
142.517814727       3.34336429426e-05
143.017877235       2.48948879664e-05
143.517939742       1.8473689042e-05
144.01800225       1.36684641539e-05
144.518064758       1.00927635418e-05
145.018127266       7.45082236568e-06
145.518189774       5.51817984605e-06
146.018252282       4.12647708356e-06
146.518314789       3.15170362427e-06
147.018377297       2.50530429976e-06
147.518439805       2.12768480305e-06
148.018502313       1.98376911635e-06
148.518564821       2.06036682221e-06
149.018627328       2.36520623593e-06
149.518689836       2.92758306244e-06
150.018752344       3.80066685669e-06
150.518814852       5.06560196098e-06
151.01887736       6.83763883068e-06
151.518939867       9.27463875616e-06
152.019002375       1.25884128969e-05
152.519064883       1.70594881045e-05
153.019127391       2.30560398656e-05
153.519189899       3.10578991748e-05
154.019252407       4.16867271376e-05
154.519314914       5.57436598575e-05
155.019377422       7.42559570681e-05
155.51943993       9.8534440328e-05
156.019502438       0.000130243778237
156.519564946       0.000171487963169
157.019627453       0.000224913620377
157.519689961       0.00029383408746
158.019752469       0.000382377488599
158.519814977       0.000495662288891
159.019877485       0.000640004031347
159.519939992       0.000823157110386
160.0200025       0.0010545954953
160.520065008       0.00134583625527
161.020127516       0.00171080952132
161.520190024       0.00216627811397
162.020252532       0.002732309431
162.520315039       0.00343280128944
163.020377547       0.00429606221209
163.520440055       0.0053554451093
164.020502563       0.00665003140158
164.520565071       0.00822536034061
165.020627578       0.0101341956065
165.520690086       0.0124373181956
166.020752594       0.0152043311949
166.520815102       0.0185144583064
167.02087761       0.0224573140232
167.520940118       0.0271336192555
168.021002625       0.0326558320928
168.521065133       0.0391486594321
169.021127641       0.0467494115704
169.521190149       0.0556081587775
170.021252657       0.0658876465559
170.521315164       0.0777629250003
171.021377672       0.0914206476412
171.52144018       0.107057996641
172.021502688       0.124881194425
172.521565196       0.145103566971
173.021627703       0.167943131208
173.521690211       0.193619688328
174.021752719       0.222351416392
174.521815227       0.254350969198
175.021877735       0.289821103954
175.521940243       0.328949877434
176.02200275       0.371905468635
176.522065258       0.418830705086
177.022127766       0.46983738906
177.522190274       0.525000538525
178.022252782       0.584352674847
178.522315289       0.647878304222
179.022377797       0.715508751757
179.522440305       0.78711751529
180.022502813       0.86251630955
180.522565321       0.941451969676
181.022627828       1.02360437574
181.522690336       1.10858554663
182.022752844       1.19594003217
182.522815352       1.28514670703
183.02287786       1.37562203892
183.522940368       1.46672486778
184.023002875       1.55776269283
184.523065383       1.64799942139
185.023127891       1.73666448949
185.523190399       1.82296321962
186.023252907       1.90608823855
186.523315414       1.98523173842
187.023377922       2.05959832967
187.52344043       2.12841820594
188.023502938       2.19096032021
188.523565446       2.24654525934
189.023627953       2.29455750126
189.523690461       2.33445674661
190.023752969       2.36578803339
190.523815477       2.38819037005
191.023877985       2.40140365804
191.523940493       2.40527371831
192.024003       2.39975528575
192.524065508       2.38491289045
193.024128016       2.36091960171
193.524190524       2.32805366893
194.024253032       2.28669315064
194.524315539       2.23730867655
195.024378047       2.18045453641
195.524440555       2.11675833138
196.024503063       2.04690945815
196.524565571       1.97164672044
197.024628079       1.89174537867
197.524690586       1.80800395332
198.024753094       1.72123109358
198.524815602       1.63223280889
199.02487811       1.54180033877
199.524940618       1.45069890673
200.025003125       1.35965756828
200.525065633       1.26936032307
201.025128141       1.18043861771
201.525190649       1.09346532184
202.025253157       1.00895021564
202.525315664       0.927336984731
203.025378172       0.849001679281
203.52544068       0.774252558896
204.025503188       0.703331215032
204.525565696       0.636414838224
205.025628204       0.573619479119
205.525690711       0.515004140085
206.025753219       0.460575527887
206.525815727       0.410293297321
207.025878235       0.364075620189
207.525940743       0.321804922919
208.02600325       0.283333648853
208.526065758       0.248489916734
209.026128266       0.217082964653
209.526190774       0.188908287595
210.026253282       0.163752396263
210.526315789       0.141397144152
211.026378297       0.121623588492
211.526440805       0.104215368024
212.026503313       0.0889615964525
212.526565821       0.0756592843437
213.026628329       0.0641153142654
213.526690836       0.0541480038857
214.026753344       0.045588299695
214.526815852       0.0382806500289
215.02687836       0.0320836103297
215.526940868       0.0268702362852
216.027003375       0.0225283218264
216.527065883       0.0189605391789
217.027128391       0.016084537456
217.527190899       0.0138330548358
218.027253407       0.0121540973466
218.527315914       0.0110112347995
219.027378422       0.010384061535
219.52744093       0.0102688663999
220.027503438       0.0106795527249
220.527565946       0.0116488449366
221.027628454       0.0132298137018
221.527690961       0.0154977459959
222.027753469       0.018552380017
222.527815977       0.0225205172371
223.027878485       0.0275590148686
223.527940993       0.0338581514372
224.0280035       0.0416453458293
224.528066008       0.0511891960014
225.028128516       0.0628037874812
225.528191024       0.0768532038926
226.028253532       0.0937561521981
226.52831604       0.11399059447
227.028378547       0.138098256253
227.528441055       0.166688859614
228.028503563       0.20044390756
228.528566071       0.240119826674
229.028628579       0.286550257691
229.528691086       0.340647270553
230.028753594       0.403401272712
230.528816102       0.475879378434
231.02887861       0.559222014139
231.528941118       0.654637551643
232.029003625       0.76339478885
232.529066133       0.88681313686
233.029128641       1.02625042431
233.529191149       1.18308829408
234.029253657       1.358715244
234.529316165       1.55450745103
235.029378672       1.7718076155
235.52944118       2.01190216632
236.029503688       2.27599727669
236.529566196       2.56519424786
237.029628704       2.88046492305
237.529691211       3.22262788808
238.029753719       3.59232629528
238.529816227       3.99000820637
239.029878735       4.41591038367
239.529941243       4.87004646072
240.03000375       5.35220038916
240.530066258       5.86192598521
241.030128766       6.39855328233
241.530191274       6.96120223734
242.030253782       7.54880413449
242.53031629       8.16013078983
243.030378797       8.79383138027
243.530441305       9.44847641565
244.030503813       10.1226080466
244.530566321       10.8147955671
245.030628829       11.5236946409
245.530691336       12.2481084687
246.030753844       12.9870488353
246.530816352       13.7397947436
247.03087886       14.5059461743
247.530941368       15.2854704174
248.031003875       16.0787384172
248.531066383       16.8865486629
249.031128891       17.710136354
249.531191399       18.5511658693
250.031253907       19.411704973
250.531316415       20.294179694
251.031378922       21.2013094034
251.53144143       22.136022276
252.031503938       23.1013520355
252.531566446       24.1003176225
253.031628954       25.1357881738
253.531691461       26.2103364132
254.031753969       27.3260842249
254.531816477       28.4845447528
255.031878985       29.686465837
255.531941493       30.931679927
256.032004001       32.2189657742
256.532066508       33.5459271986
257.032129016       34.908894027
257.532191524       36.3028499097
258.032254032       37.7213911492
258.53231654       39.1567199206
259.032379047       40.5996743564
259.532441555       42.0397969272
260.032504063       43.4654414147
260.532566571       44.8639175708
261.032629079       46.2216713447
261.532691586       47.5244973629
262.032754094       48.7577792283
262.532816602       49.9067521937
263.03287911       50.9567819108
263.532941618       51.8936522865
264.033004126       52.70385503
264.533066633       53.3748732614
265.033129141       53.8954515882
265.533191649       54.2558453476
266.033254157       54.4480422431
266.533316665       54.4659503665
267.033379172       54.3055475528
267.53344168       53.9649881461
268.033504188       53.4446645046
268.533566696       52.7472219044
