#  x                 y             frequency           intensity
0.0       5.81528954061e-06       36.94       0.24799
0.500062507813       7.74592417491e-06       97.95       4.96812
1.00012501563       1.02772815122e-05       211.29       0.99789
1.50018752344       1.35827083998e-05       265.65       27.44380
2.00025003125       1.78812392692e-05       278.84       11.31279
2.50031253907       2.34483325575e-05       345.16       61.49295
3.00037504688       3.06287609454e-05       374.77       96.75586
3.50043755469       3.9851989256e-05       481.25       10.87590
4.00050006251       5.16504005554e-05       506.55       16.98257
4.50056257032       6.66807531035e-05       593.25       20.53579
5.00062507813       8.57492660442e-05       662.05       102.31285
5.50068758595       0.00010984073738       742.32       27.76568
6.00075009376       0.000140152090801       835.93       8.91447
6.50081260158       0.000178130724886       895.06       78.69093
7.00087510939       0.000225517995379       917.18       81.42372
7.5009376172       0.000284398094774       1007.37       90.35087
8.00100012502       0.000357252499387       1049.20       33.07267
8.50106263283       0.000447020028633       1124.87       218.55754
9.00112514064       0.00055716240095       1144.18       76.24609
9.50118764846       0.000691734972823       1188.62       7.48227
10.0012501563       0.000855462109774       1262.97       4.32830
10.5013126641       0.00105381636023       1301.80       9.07312
11.0013751719       0.00129310028582       1358.18       12.82980
11.5014376797       0.00158052944757       1385.19       0.15023
12.0015001875       0.00192431466182       1392.66       15.22390
12.5015626953       0.00233374123002       1412.28       17.08394
13.0016252032       0.00281924242344       1497.50       4.76549
13.501687711       0.00339246408017       1670.89       34.06542
14.0017502188       0.00406631676462       1814.60       294.18096
14.5018127266       0.00485501156762       2994.49       14.28862
15.0018752344       0.00577407530992       3055.98       37.54672
15.5019377422       0.00684034067773       3110.55       15.95844
16.00200025       0.00807190669039       3484.41       3.04757
16.5020627578       0.00948806490346       3556.18       10.24052
17.0021252657       0.0111091869101       3712.37       56.07865
17.5021877735       0.0129565690434       3796.80       29.58910
18.0022502813       0.0150522307203
18.5023127891       0.0174186636223
19.0023752969       0.0200785298823
19.5024378047       0.0230543086479
20.0025003125       0.0263678918039
20.5025628204       0.0300401312463
21.0026253282       0.0340903418757
21.502687836       0.0385357663736
22.0027503438       0.0433910097944
22.5028128516       0.048667453981
23.0028753594       0.0543726637193
23.5029378672       0.06050979831
24.003000375       0.0670770437701
24.5030628829       0.0740670820929
25.0031253907       0.0814666148153
25.5031878985       0.0892559584905
26.0032504063       0.0974087294678
26.5033129141       0.105891634605
27.0033754219       0.114664383134
27.5034379297       0.12367973288
28.0035004376       0.132883681373
28.5035629454       0.142215809202
29.0036254532       0.151609779222
29.503687961       0.160993991108
30.0037504688       0.170292386342
30.5038129766       0.179425394133
31.0038754844       0.188311004229
31.5039379922       0.196865948167
32.0040005001       0.205006966469
32.5040630079       0.212652135713
33.0041255157       0.219722226519
33.5041880235       0.226142061389
34.0042505313       0.231841840083
34.5043130391       0.236758400037
35.0043755469       0.24083638005
35.5044380548       0.244029257313
36.0045005626       0.24630023064
36.5045630704       0.247622926445
37.0046255782       0.247981908558
37.504688086       0.247372978064
38.0047505938       0.24580325506
38.5048131016       0.243291040075
39.0048756095       0.239865458942
39.5049381173       0.235565900746
40.0050006251       0.230441264024
40.5050631329       0.224549031369
41.0051256407       0.217954196936
41.5051881485       0.210728074792
42.0052506563       0.20294701862
42.5053131641       0.194691084825
43.005375672       0.186042671598
43.5054381798       0.177085166011
44.0055006876       0.167901629756
44.5055631954       0.158573551802
45.0056257032       0.149179693177
45.505688211       0.139795045368
46.0057507188       0.130489919677
46.5058132267       0.121329180407
47.0058757345       0.112371630195
47.5059382423       0.103669551252
48.0060007501       0.0952684019112
48.5060632579       0.0872066638796
49.0061257657       0.0795158319763
49.5061882735       0.0722205350774
50.0062507813       0.0653387745062
50.5063132892       0.0588822642416
51.006375797       0.0528568560882
51.5064383048       0.0472630323363
52.0065008126       0.0420964484023
52.5065633204       0.037348508433
53.0066258282       0.0330069578071
53.506688336       0.0290564777971
54.0067508439       0.0254792692916
54.5068133517       0.0222556143233
55.0068758595       0.0193644061326
55.5069383673       0.0167836405399
56.0070008751       0.0144908634353
56.5070633829       0.0124635711564
57.0071258907       0.0106795623841
57.5071883985       0.00911724188561
58.0072509064       0.00775587796589
58.5073134142       0.00657581683583
59.007375922       0.00555865826276
59.5074384298       0.00468739784739
60.0075009376       0.00394654208225
60.5075634454       0.0033222030099
61.0076259532       0.00280217983709
61.5076884611       0.00237603529674
62.0077509689       0.0020351749075
62.5078134767       0.00177293757962
63.0078759845       0.00158470627395
63.5079384923       0.00146804764687
64.0080010001       0.00142288981184
64.5080635079       0.00145174751224
65.0081260158       0.00156000411389
65.5081885236       0.00175625986541
66.0082510314       0.002052755802
66.5083135392       0.00246588243803
67.008376047       0.00301678194772
67.5084385548       0.00373205180598
68.0085010626       0.00464455677805
68.5085635704       0.00579435462989
69.0086260783       0.00722973889846
69.5086885861       0.00900839943399
70.0087510939       0.0111986981324
70.5088136017       0.0138810532528
71.0088761095       0.0171494209232
71.5089386173       0.0211128568517
72.0090011251       0.0258971349065
72.509063633       0.0316463921425
73.0091261408       0.0385247621498
73.5091886486       0.046717950415
74.0092511564       0.0564346969381
74.5093136642       0.0679080628922
75.009376172       0.0813964699817
75.5094386798       0.097184413725
76.0095011876       0.115582765598
76.5095636955       0.136928574297
77.0096262033       0.161584273824
77.5096887111       0.189936206161
78.0097512189       0.222392369517
78.5098137267       0.259379309915
79.0098762345       0.301338084695
79.5099387423       0.348719241569
80.0100012502       0.401976776428
80.510063758       0.461561057086
81.0101262658       0.527910728501
81.5101887736       0.601443647177
82.0102512814       0.682546928068
82.5103137892       0.771566225242
83.010376297       0.868794407045
83.5104388049       0.974459826041
84.0105013127       1.08871442226
84.5105638205       1.21162193364
85.0106263283       1.3431465182
85.5106888361       1.48314211712
86.0107513439       1.63134290406
86.5108138517       1.78735517333
87.0108763595       1.95065101564
87.5109388674       2.12056411449
88.0110013752       2.29628796831
88.511063883       2.47687680306
89.0111263908       2.66124938675
89.5111888986       2.84819589325
90.0112514064       3.03638788833
90.5113139142       3.22439142813
91.0113764221       3.41068317193
91.5114389299       3.59366931947
92.0115014377       3.77170709194
92.5115639455       3.94312838733
93.0116264533       4.1062651598
93.5116889611       4.25947600128
94.0117514689       4.40117334534
94.5118139767       4.52985067091
95.0118764846       4.64410905909
95.5119389924       4.74268245134
96.0120015002       4.82446097298
96.512064008       4.88851172197
97.0121265158       4.93409647887
97.5121890236       4.96068586807
98.0122515314       4.96796959038
98.5123140393       4.95586245053
99.0123765471       4.92450601585
99.5124390549       4.87426586098
100.012501563       4.80572447356
100.512564071       4.71967001343
101.012626578       4.61708122866
101.512689086       4.49910893183
102.012751594       4.36705452685
102.512814102       4.22234614592
103.01287661       4.06651300758
103.512939117       3.90115863776
104.013001625       3.72793360614
104.513064133       3.54850842046
105.013126641       3.36454719196
105.513189149       3.17768263907
106.013251656       2.98949293433
106.513314164       2.80148082555
107.013376672       2.61505537894
107.51343918       2.43151660274
108.013501688       2.25204311792
108.513564196       2.07768295203
109.013626703       1.90934744433
109.513689211       1.74780817033
110.013751719       1.59369672103
110.513814227       1.4475071113
111.013876735       1.30960054124
111.513939242       1.18021219751
112.01400175       1.05945975628
112.514064258       0.947353237178
113.014126766       0.843805856485
113.514189274       0.748645537355
114.014251781       0.661626753367
114.514314289       0.582442407987
115.014376797       0.510735484475
115.514439305       0.446110237009
116.014501813       0.388142732522
116.514564321       0.336390592402
117.014626828       0.29040182238
117.514689336       0.249722656424
118.014751844       0.213904375223
118.514814352       0.182509091153
119.01487686       0.155114518862
119.514939367       0.131317773524
120.015001875       0.110738257208
120.515064383       0.0930197077982
121.015126891       0.0778314946402
121.515189399       0.0648692509445
122.015251906       0.0538549353215
122.515314414       0.044536414182
123.015376922       0.03668665357
123.51543943       0.0301026038432
124.015501938       0.0246038539707
124.515564446       0.0200311245444
125.015626953       0.0162446603239
125.515689461       0.0131225746233
126.015751969       0.0105591894165
126.515814477       0.00846340693469
127.015876985       0.00675714095367
127.515939492       0.00537382905063
128.016002       0.00425704095311
128.516064508       0.00335919273605
129.016127016       0.00264037206842
129.516189524       0.00206727594027
130.016252032       0.00161225927304
130.516314539       0.00125249046919
131.016377047       0.000969208220627
131.516439555       0.000747072691244
132.016502063       0.000573603439199
132.516564571       0.000438696070996
133.016627078       0.000334209550317
133.516689586       0.000253616252067
134.016752094       0.000191707197069
134.516814602       0.000144345373179
135.01687711       0.000108260600275
135.516939617       8.08799933639e-05
136.017002125       6.01886906963e-05
136.517064633       4.46161198593e-05
137.017127141       3.29436574364e-05
137.517189649       2.42300852079e-05
138.017252157       1.77517503847e-05
138.517314664       1.29547947472e-05
139.017377172       9.41722622903e-06
139.51743968       6.81896691953e-06
140.017502188       4.91832560383e-06
140.517564696       3.53361380214e-06
141.017627203       2.5288554261e-06
141.517689711       1.80273559326e-06
142.017752219       1.28009788049e-06
142.517814727       9.05435329669e-07
143.017877235       6.37932616387e-07
143.517939742       4.47708450213e-07
144.01800225       3.12981659352e-07
144.518064758       2.17944342302e-07
145.018127266       1.51173415203e-07
145.518189774       1.04449981026e-07
146.018252282       7.18860178964e-08
146.518314789       4.92814660077e-08
147.018377297       3.36531689929e-08
147.518439805       2.28913566139e-08
148.018502313       1.55103093866e-08
148.518564821       1.04682265901e-08
149.018627328       7.03769372415e-09
149.518689836       4.71296609132e-09
150.018752344       3.14390986935e-09
150.518814852       2.08915218846e-09
151.01887736       1.38300688375e-09
151.518939867       9.12232810646e-10
152.019002375       5.9977774604e-10
152.519064883       3.93462957987e-10
153.019127391       2.58147472048e-10
153.519189899       1.70334234636e-10
154.019252407       1.14485827006e-10
154.519314914       8.05372911602e-11
155.019377422       6.22519586846e-11
155.51943993       5.61807721273e-11
156.019502438       6.10698048019e-11
156.519564946       7.7624637162e-11
157.019627453       1.08591822402e-10
157.519689961       1.59163329534e-10
158.019752469       2.37755292164e-10
158.519814977       3.57263156472e-10
159.019877485       5.3695735278e-10
159.519939992       8.05263825004e-10
160.0200025       1.20378065588e-09
160.520065008       1.79302646305e-09
161.020127516       2.66061224048e-09
161.520190024       3.93279414922e-09
162.020252532       5.79072421204e-09
162.520315039       8.49319982759e-09
163.020377547       1.2408361398e-08
163.520440055       1.80576514055e-08
164.020502563       2.61764933446e-08
164.520565071       3.77976578083e-08
165.020627578       5.4365259782e-08
165.520690086       7.78899055922e-08
166.020752594       1.11158840431e-07
166.520815102       1.58019234674e-07
167.02087761       2.23758228304e-07
167.520940118       3.15610315073e-07
168.021002625       4.43431433935e-07
168.521065133       6.20590147583e-07
169.021127641       8.65139995401e-07
169.521190149       1.20135404862e-06
170.021252657       1.66172347719e-06
170.521315164       2.28954723682e-06
171.021377672       3.14227053802e-06
171.52144018       4.29576635115e-06
172.021502688       5.84979764327e-06
172.521565196       7.93494914148e-06
173.021627703       1.0721376933e-05
173.521690211       1.44297928036e-05
174.021752719       1.93451783691e-05
174.521815227       2.58338119952e-05
175.021877735       3.43642890945e-05
175.521940243       4.55333230121e-05
176.02200275       6.00972281226e-05
176.522065258       7.90101069405e-05
177.022127766       0.000103469886051
177.522190274       0.000134973467448
178.022252782       0.00017538237711
178.522315289       0.000227000394685
179.022377797       0.000292664728732
179.522440305       0.000375852351345
180.022502813       0.000480803112751
180.522565321       0.000612661207797
181.022627828       0.000777636447887
181.522690336       0.000983186588724
182.022752844       0.00123822166038
182.522815352       0.00155333082598
183.02287786       0.00194103174388
183.522940368       0.00241604171208
184.023002875       0.00299556902305
184.523065383       0.00369962194514
185.023127891       0.00455133157327
185.523190399       0.00557728346177
186.023252907       0.00680785148138
186.523315414       0.00827752575318
187.023377922       0.0100252248398
187.52344043       0.0120945806644
188.023502938       0.0145341829377
188.523565446       0.0173977682753
189.023627953       0.020744337755
189.523690461       0.0246381855023
190.023752969       0.0291488200769
190.523815477       0.034350760093
191.023877985       0.0403231857193
191.523940493       0.0471494285897
192.024003       0.0549162842854
192.524065508       0.0637131340111
193.024128016       0.073630865423
193.524190524       0.0847605868025
194.024253032       0.0971921338998
194.524315539       0.11101237474
195.024378047       0.126303324404
195.524440555       0.143140089134
196.024503063       0.161588666856
196.524565571       0.181703639198
197.024628079       0.203525797948
197.524690586       0.227079756416
198.024753094       0.252371602999
198.524815602       0.279386659982
199.02487811       0.308087415033
199.524940618       0.338411695497
200.025003125       0.370271156302
200.525065633       0.403550150682
201.025128141       0.43810504898
201.525190649       0.473764064257
202.025253157       0.510327634409
202.525315664       0.547569399065
203.025378172       0.585237795851
203.52544068       0.623058285043
204.025503188       0.660736194576
204.525565696       0.697960159321
205.025628204       0.734406110118
205.525690711       0.769741749828
206.025753219       0.80363143639
206.525815727       0.835741377154
207.025878235       0.865745025293
207.525940743       0.893328558445
208.02600325       0.918196312437
208.526065758       0.940076039373
209.026128266       0.958723859822
209.526190774       0.973928783385
210.026253282       0.985516680616
210.526315789       0.993353601788
211.026378297       0.997348354082
211.526440805       0.997454267878
212.026503313       0.993670104311
212.526565821       0.986040079429
213.026628329       0.974653004293
213.526690836       0.959640564413
214.026753344       0.941174785135
214.526815852       0.919464751197
215.02687836       0.894752667942
215.526940868       0.867309367907
216.027003375       0.837429379282
216.527065883       0.805425681619
217.027128391       0.771624278973
217.527190899       0.736358721342
218.027253407       0.699964701958
218.527315914       0.662774850885
219.027378422       0.625113834964
219.52744093       0.587293860865
220.027503438       0.54961066248
220.527565946       0.512340036759
221.027628454       0.475734974068
221.527690961       0.440023410825
222.027753469       0.405406614348
222.527815977       0.372058192919
223.027878485       0.340123708789
223.527940993       0.309720858414
224.0280035       0.280940173186
224.528066008       0.253846185315
225.028128516       0.228478997668
225.528191024       0.204856193067
226.028253532       0.182975017979
226.52831604       0.162814777311
227.028378547       0.144339381064
227.528441055       0.127499989644
228.028503563       0.112237712265
228.528566071       0.0984863218954
229.028628579       0.0861749601793
229.528691086       0.0752308163974
230.028753594       0.0655817755148
230.528816102       0.0571590413337
231.02887861       0.0498997514826
231.528941118       0.0437496111287
232.029003625       0.0386655816415
232.529066133       0.0346186687197
233.029128641       0.0315968614648
233.529191149       0.0296082792999
234.029253657       0.0286845872368
234.529316165       0.0288847415057
235.029378672       0.0302991267
235.52944118       0.0330541420445
236.029503688       0.0373172878412
236.529566196       0.0433027932643
237.029628704       0.051277813136
237.529691211       0.0615692038344
238.029753719       0.074570866805
238.529816227       0.0907516221181
239.029878735       0.110663544074
239.529941243       0.1349506561
240.03000375       0.164357843413
240.530066258       0.199739799591
241.030128766       0.242069778179
241.530191274       0.292447873674
242.030253782       0.352108509159
242.53031629       0.422426762174
243.030378797       0.504923117994
243.530441305       0.601266202807
244.030503813       0.713273020706
244.530566321       0.842906200691
245.030628829       0.9922677558
245.530691336       1.16358886876
246.030753844       1.35921524973
246.530816352       1.58158766407
247.03087886       1.83321730324
247.530941368       2.11665577128
248.031003875       2.43445958252
248.531066383       2.78914921323
249.031128891       3.18316291823
249.531191399       3.61880571067
250.031253907       4.09819410396
250.531316415       4.62319742505
251.031378922       5.1953767193
251.53144143       5.81592247285
252.031503938       6.48559256927
252.531566446       7.20465206381
253.031628954       7.9728164926
253.531691461       8.78920052517
254.031753969       9.65227380898
254.531816477       10.5598258374
255.031878985       11.5089415902
255.531941493       12.4959895474
256.032004001       13.5166234597
256.532066508       14.5657989727
257.032129016       15.6378058573
257.532191524       16.726316196
258.032254032       17.8244484273
258.53231654       18.9248466762
259.032379047       20.0197743061
259.532441555       21.1012201362
260.032504063       22.1610153035
260.532566571       23.1909583177
261.032629079       24.1829454921
261.532691586       25.1291036372
262.032754094       26.0219217083
262.532816602       26.8543779988
263.03287911       27.6200594886
263.532941618       28.3132700897
264.033004126       28.9291247804
264.533066633       29.4636269791
