#  x                 y             frequency           intensity
0.0       1.67303988546e-09       52.37       3.38066
0.500062507813       2.5140133565e-09       158.75       6.54154
1.00012501563       3.7629806027e-09       218.51       30.55872
1.50018752344       5.61047319219e-09       228.56       7.64022
2.00025003125       8.33240011995e-09       319.84       0.58734
2.50031253907       1.23266156424e-08       328.33       0.88356
3.00037504688       1.81643852911e-08       410.98       6.33312
3.50043755469       2.66624877656e-08       436.56       122.98162
4.00050006251       3.89837619166e-08       525.89       21.01005
4.50056257032       5.67766724434e-08       581.02       85.73321
5.00062507813       8.23681361432e-08       625.12       25.84090
5.50068758595       1.19028690177e-07       732.74       31.95948
6.00075009376       1.71335431767e-07       796.31       69.84558
6.50081260158       2.45666435865e-07       831.00       119.36504
7.00087510939       3.50871085047e-07       972.26       6.36633
7.5009376172       4.9917456443e-07       1056.25       5.28490
8.00100012502       7.07392463214e-07       1073.85       76.54347
8.50106263283       9.98553922773e-07       1116.46       93.63923
9.00112514064       1.40406019992e-06       1153.03       247.80593
9.50118764846       1.96654119547e-06       1204.22       5.19800
10.0012501563       2.74361697494e-06       1233.97       10.79434
10.5013126641       3.81282635436e-06       1301.57       5.05485
11.0013751719       5.2780522539e-06       1315.71       11.94233
11.5014376797       7.2778559797e-06       1378.29       0.28394
12.0015001875       9.99623233998e-06       1415.42       40.61729
12.5015626953       1.36764171644e-05       1431.43       31.19166
13.0016252032       1.86385211127e-05       1503.90       1.59072
13.501687711       2.5301931378e-05       1641.33       70.70780
14.0017502188       3.42136186292e-05       1816.06       286.71177
14.5018127266       4.60837126157e-05       2947.25       21.75984
15.0018752344       6.18299680627e-05       3007.92       50.56500
15.5019377422       8.26330337792e-05       3094.24       23.64746
16.00200025       0.000110004762108       3510.04       7.41709
16.5020627578       0.000145872151218       3595.32       15.49992
17.0021252657       0.000192679895513       3722.28       80.72115
17.5021877735       0.000253514923401       3787.58       50.67509
18.0022502813       0.000332256717378
18.5023127891       0.00043375762614
19.0023752969       0.000564057774888
19.5024378047       0.000730639536685
20.0025003125       0.000942726817725
20.5025628204       0.00121163460064
21.0026253282       0.0015511742451
21.502687836       0.00197811992123
22.0027503438       0.00251274120161
22.5028128516       0.00317940621085
23.0028753594       0.00400725877481
23.5029378672       0.00503097167075
24.003000375       0.00629157630414
24.5030628829       0.00783736688086
25.0031253907       0.00972487436816
25.5031878985       0.01201990222
26.0032504063       0.0147986119745
26.5033129141       0.0181486424305
27.0033754219       0.0221702412142
27.5034379297       0.0269773822395
28.0035004376       0.0326988369404
28.5035629454       0.0394791613738
29.0036254532       0.0474795555369
29.503687961       0.056878545739
30.0037504688       0.06787243589
30.5038129766       0.0806754694105
31.0038754844       0.0955196404566
31.5039379922       0.112654091642
32.0040005001       0.132344035768
32.5040630079       0.154869141576
33.0041255157       0.180521328563
33.5041880235       0.209601923616
34.0042505313       0.242418142964
34.5043130391       0.279278876656
35.0043755469       0.320489769576
35.5044380548       0.36634761267
36.0045005626       0.417134080344
36.5045630704       0.473108874489
37.0046255782       0.534502361603
37.504688086       0.601507816424
38.0047505938       0.674273412304
38.5048131016       0.752894124367
39.0048756095       0.837403735167
39.5049381173       0.927767152871
40.0050006251       1.02387326792
40.5050631329       1.1255285844
41.0051256407       1.23245186612
41.5051881485       1.34427003359
42.0052506563       1.46051553634
42.5053131641       1.58062540464
43.005375672       1.70394215573
43.5054381798       1.8297166927
44.0055006876       1.95711328902
44.5055631954       2.0852167003
45.0056257032       2.21304138795
45.505688211       2.33954277874
46.0057507188       2.46363042194
46.5058132267       2.5841828436
47.0058757345       2.70006383839
47.5059382423       2.81013988456
48.0060007501       2.91329832067
48.5060632579       3.00846588438
49.0061257657       3.09462718639
49.5061882735       3.17084267827
50.0062507813       3.23626567115
50.5063132892       3.29015797547
51.006375797       3.33190375814
51.5064383048       3.36102125361
52.0065008126       3.37717201766
52.5065633204       3.38016747529
53.0066258282       3.36997258554
53.506688336       3.34670652384
54.0067508439       3.31064036312
54.5068133517       3.26219181687
55.0068758595       3.2019171867
55.5069383673       3.13050073136
56.0070008751       3.04874174129
56.5070633829       2.95753965998
57.0071258907       2.85787763902
57.5071883985       2.75080494656
58.0072509064       2.63741866797
58.5073134142       2.51884514237
59.007375922       2.39622157016
59.5074384298       2.27067820505
60.0075009376       2.14332151053
60.5075634454       2.01521861762
61.0076259532       1.88738336902
61.5076884611       1.76076417757
62.0077509689       1.63623386544
62.5078134767       1.51458158855
63.0078759845       1.39650688844
63.5079384923       1.28261585554
64.0080010001       1.17341933319
64.5080635079       1.06933304398
65.0081260158       0.970679479058
65.5081885236       0.877691358391
66.0082510314       0.790516445794
66.5083135392       0.709223486754
67.008376047       0.63380902986
67.5084385548       0.564204893016
68.0085010626       0.500286043055
68.5085635704       0.441878670889
69.0086260783       0.388768262776
69.5086885861       0.340707490585
70.0087510939       0.297423768927
70.5088136017       0.25862635349
71.0088761095       0.224012881954
71.5089386173       0.193275285358
72.0090011251       0.166105023105
72.509063633       0.142197618095
73.0091261408       0.121256489414
73.5091886486       0.102996098107
74.0092511564       0.0871444367032
74.5093136642       0.0734449052202
75.009376172       0.0616576254782
75.5094386798       0.0515602517411
76.0095011876       0.0429483393328
76.5095636955       0.0356353341461
77.0096262033       0.0294522452428
77.5096887111       0.0242470603682
78.0097512189       0.0198839605283
78.5098137267       0.0162423851276
79.0098762345       0.01321599387
79.5099387423       0.0107115659515
80.0100012502       0.00864787127928
80.510063758       0.00695454273559
81.0101262658       0.00557097303969
81.5101887736       0.00444525466341
82.0102512814       0.00353317662655
82.5103137892       0.00279728788369
83.010376297       0.00220603344662
83.5104388049       0.00173296636707
84.0105013127       0.0013560362162
84.5105638205       0.00105695270847
85.0106263283       0.000820621585484
85.5106888361       0.000634648751126
86.0107513439       0.000488907878945
86.5108138517       0.000375166244148
87.0108763595       0.00028676331212
87.5109388674       0.00021833659503
88.0110013752       0.000165589422486
88.511063883       0.000125095521742
89.0111263908       9.41356329518e-05
89.5111888986       7.05617664358e-05
90.0112514064       5.26851176979e-05
90.5113139142       3.91840730873e-05
91.0113764221       2.90291496389e-05
91.5114389299       2.14221059694e-05
92.0115014377       1.57468295157e-05
92.5115639455       1.15299440791e-05
93.0116264533       8.40938797493e-06
93.5116889611       6.10948624859e-06
94.0117514689       4.42128089849e-06
94.5118139767       3.18709229267e-06
95.0118764846       2.28846508971e-06
95.5119389924       1.63680548325e-06
96.0120015002       1.16614619099e-06
96.512064008       8.27584058962e-07
97.0121265158       5.85025139704e-07
97.5121890236       4.1194617004e-07
98.0122515314       2.88941867993e-07
98.5123140393       2.01876508268e-07
99.0123765471       1.40497705168e-07
99.5124390549       9.74018772717e-08
100.012501563       6.72659103935e-08
100.512564071       4.6279284513e-08
101.012626578       3.17264064127e-08
101.512689086       2.16809428884e-08
102.012751594       1.47832819249e-08
102.512814102       1.00794361287e-08
103.01287661       6.90521118286e-09
103.512939117       4.80366925232e-09
104.013001625       3.46712618896e-09
104.513064133       2.69737515513e-09
105.013126641       2.37972348775e-09
105.513189149       2.46792322409e-09
106.013251656       2.97830070497e-09
106.513314164       3.99246075552e-09
107.013376672       5.66895950532e-09
107.51343918       8.26540769705e-09
108.013501688       1.21736891392e-08
108.513564196       1.7972475696e-08
109.013626703       2.65031317585e-08
109.513689211       3.89776003804e-08
110.013751719       5.71301666842e-08
110.513814227       8.3429375518e-08
111.013876735       1.21372186812e-07
111.513939242       1.7589012317e-07
112.01400175       2.53907254083e-07
112.514064258       3.65103064257e-07
113.014126766       5.22950434547e-07
113.514189274       7.46121190373e-07
114.014251781       1.06038025212e-06
114.514314289       1.50112594174e-06
115.014376797       2.11678036739e-06
115.514439305       2.97329229239e-06
116.014501813       4.1600881663e-06
116.514564321       5.79789815559e-06
117.014626828       8.0489966175e-06
117.514689336       1.11305345293e-05
118.014751844       1.53318093785e-05
118.514814352       2.10365207912e-05
119.01487686       2.87513028869e-05
119.514939367       3.91421123192e-05
120.015001875       5.30803894716e-05
120.515064383       7.17013042793e-05
121.015126891       9.64768518943e-05
121.515189399       0.000129307080003
122.015251906       0.00017263331038
122.515314414       0.000229577861135
123.015376922       0.000304115478814
123.51543943       0.000401282442466
124.015501938       0.000527430091606
124.515564446       0.000690530336641
125.015626953       0.000900541507
125.515689461       0.00116984364339
126.015751969       0.00151375300179
126.515814477       0.00195112605362
127.015876985       0.00250506357377
127.515939492       0.00320372543112
128.016002       0.00408126634953
128.516064508       0.00517890209724
129.016127016       0.00654611418985
129.516189524       0.00824199915238
130.016252032       0.0103367655768
130.516314539       0.0129133785351
131.016377047       0.01606934628
131.516439555       0.0199186385183
132.016502063       0.024593718838
132.516564571       0.0302476661067
133.016627078       0.0370563508762
133.516689586       0.0452206231283
134.016752094       0.0549684572352
134.516814602       0.0665569890177
135.01687711       0.0802743685697
135.516939617       0.0964413414681
136.017002125       0.115412460555
136.517064633       0.137576821212
137.017127141       0.163358205525
137.517189649       0.19321451562
138.017252157       0.227636374426
138.517314664       0.267144773776
139.017377172       0.312287655901
139.51743968       0.363635325387
140.017502188       0.421774605174
140.517564696       0.487301672447
141.017627203       0.560813538422
141.517689711       0.642898170041
142.017752219       0.734123291089
142.517814727       0.835023944564
143.017877235       0.94608894645
143.517939742       1.06774641204
144.01800225       1.20034858816
144.518064758       1.34415627624
145.018127266       1.49932318026
145.518189774       1.66588055782
146.018252282       1.84372258993
146.518314789       2.0325929131
147.018377297       2.23207277423
147.518439805       2.44157127208
148.018502313       2.66031813791
148.518564821       2.88735948066
149.018627328       3.12155687827
149.518689836       3.36159013643
150.018752344       3.60596395999
150.518814852       3.85301869189
151.01887736       4.10094517142
151.518939867       4.34780365145
152.019002375       4.59154659563
152.519064883       4.83004505554
153.019127391       5.06111820885
153.519189899       5.28256552669
154.019252407       5.49220093621
154.519314914       5.68788825726
155.019377422       5.86757712364
155.51943993       6.02933855302
156.019502438       6.17139930806
156.519564946       6.29217419583
157.019627453       6.39029548448
157.519689961       6.46463867462
158.019752469       6.51434394681
158.519814977       6.53883271317
159.019877485       6.53781882768
159.519939992       6.51131415158
160.0200025       6.45962832236
160.520065008       6.38336273281
161.020127516       6.28339888362
161.520190024       6.16088142514
162.020252532       6.01719634429
162.520315039       5.85394487778
163.020377547       5.67291383779
163.520440055       5.47604311832
164.020502563       5.26539120682
164.520565071       5.04309955509
165.020627578       4.81135666651
165.520690086       4.57236273242
166.020752594       4.32829560264
166.520815102       4.08127880501
167.02087761       3.83335224023
167.520940118       3.58644607522
168.021002625       3.34235824477
168.521065133       3.10273585182
169.021127641       2.8690606359
169.521190149       2.64263856104
170.021252657       2.42459346262
170.521315164       2.21586459101
171.021377672       2.01720780005
171.52144018       1.82920005409
172.021502688       1.65224686785
172.521565196       1.48659225158
173.021627703       1.33233070762
173.521690211       1.18942081482
174.021752719       1.05769994196
174.521815227       0.93689964919
175.021877735       0.826661365662
175.521940243       0.726551969708
176.02200275       0.636078943151
176.522065258       0.554704821006
177.022127766       0.48186071022
177.522190274       0.41695870395
178.022252782       0.359403069587
178.522315289       0.308600137795
179.022377797       0.263966865072
179.522440305       0.224938082857
180.022502813       0.190972481471
180.522565321       0.161557406873
181.022627828       0.136212572269
181.522690336       0.114492805238
182.022752844       0.0959899645464
182.522815352       0.0803341697232
183.02287786       0.0671944912576
183.522940368       0.0562792506127
184.023002875       0.0473360777008
184.523065383       0.0401518695926
185.023127891       0.0345527885487
185.523190399       0.0304044303705
186.023252907       0.0276122858677
186.523315414       0.0261226091207
187.023377922       0.0259237962222
187.52344043       0.0270483672547
188.023502938       0.0295756322063
188.523565446       0.0336351080505
189.023627953       0.039410738947
189.523690461       0.0471459540096
190.023752969       0.0571495768729
190.523815477       0.0698025778941
191.023877985       0.0855656328402
191.523940493       0.104987420987
192.024003       0.128713560504
192.524065508       0.157496039791
193.024128016       0.192202960288
193.524190524       0.23382835967
194.024253032       0.283501835085
194.524315539       0.342497635282
195.024378047       0.412242839679
195.524440555       0.494324193454
196.024503063       0.590493122831
196.524565571       0.70266841643
197.024628079       0.832936029647
197.524690586       0.983545452487
198.024753094       1.15690208014
198.524815602       1.35555504279
199.02487811       1.58217998958
199.524940618       1.83955638344
200.025003125       2.13053895044
200.525065633       2.4580230411
201.025128141       2.8249038003
201.525190649       3.2340292078
202.025253157       3.68814723944
202.525315664       4.18984760668
203.025378172       4.74149875423
203.52544068       5.34518102611
204.025503188       6.00261714171
204.525565696       6.71510134678
205.025628204       7.48342881083
205.525690711       8.30782702176
206.025753219       9.18789107092
206.525815727       10.1225248181
207.025878235       11.1098899667
207.525940743       12.1473650576
208.02600325       13.2315163004
208.526065758       14.3580819994
209.026128266       15.5219720992
209.526190774       16.7172840684
210.026253282       17.9373359776
210.526315789       19.1747171971
211.026378297       20.4213566783
211.526440805       21.6686082761
212.026503313       22.9073520651
212.526565821       24.1281100834
213.026628329       25.3211744603
213.526690836       26.4767454333
214.026753344       27.5850763784
214.526815852       28.6366226723
215.02687836       29.622190987
215.526940868       30.533085508
216.027003375       31.3612475656
216.527065883       32.0993852792
217.027128391       32.7410900424
217.527190899       33.2809370025
218.027253407       33.7145671187
218.527315914       34.0387488877
219.027378422       34.2514183949
219.52744093       34.3516969645
220.027503438       34.3398863073
220.527565946       34.2174416999
221.027628454       33.9869243218
221.527690961       33.651934434
222.027753469       33.2170275641
222.527815977       32.6876162605
223.027878485       32.0698602845
223.527940993       31.3705483022
224.0280035       30.5969742298
224.528066008       29.7568113688
225.028128516       28.8579873441
225.528191024       27.9085626514
226.028253532       26.9166153256
226.52831604       25.8901338902
227.028378547       24.8369203473
227.528441055       23.7645045384
228.028503563       22.6800707721
228.528566071       21.5903971808
229.028628579       20.5018078683
229.528691086       19.4201375377
230.028753594       18.3507079712
230.528816102       17.2983154701
231.02887861       16.2672281571
231.528941118       15.2611919068
232.029003625       14.2834435869
232.529066133       13.3367302707
233.029128641       12.4233331123
233.529191149       11.5450946436
234.029253657       10.7034483635
234.529316165       9.89944961586
235.029378672       9.13380690676
235.52944118       8.40691296066
236.029503688       7.71887497344
236.529566196       7.06954366408
237.029628704       6.45854086099
237.529691211       5.88528547402
238.029753719       5.34901779963
238.529816227       4.84882218118
239.029878735       4.38364810062
239.529941243       3.95232981207
240.03000375       3.553604645
240.530066258       3.18613010644
241.030128766       2.8484999027
241.530191274       2.53925898246
242.030253782       2.25691768048
242.53031629       1.99996501507
243.030378797       1.76688116767
243.530441305       1.5561491496
244.030503813       1.36626564213
244.530566321       1.1957509821
245.030628829       1.0431582567
245.530691336       0.907081468233
246.030753844       0.786162731814
246.530816352       0.679098476459
247.03087886       0.584644630308
247.530941368       0.501620784705
248.031003875       0.428913347023
248.531066383       0.365477708205
249.031128891       0.310339466744
249.531191399       0.262594765519
250.031253907       0.221409810737
250.531316415       0.18601965286
251.031378922       0.155726317327
251.53144143       0.129896378081
252.031503938       0.107958069275
252.531566446       0.0893980302881
253.031628954       0.0737577764767
253.531691461       0.0606299833382
254.031753969       0.0496546652453
254.531816477       0.0405153221156
255.031878985       0.0329351186551
255.531941493       0.0266731515716
256.032004001       0.0215208507506
256.532066508       0.0172985511255
257.032129016       0.0138522631346
257.532191524       0.0110506614282
258.032254032       0.00878230404623
258.53231654       0.00695308771283
259.032379047       0.00548393925313
259.532441555       0.00430873844258
260.032504063       0.00337246382062
260.532566571       0.00262955009388
261.032629079       0.00204244364631
261.532691586       0.00158034127834
262.032754094       0.00121809652231
262.532816602       0.000935277630234
263.03287911       0.000715361507005
263.532941618       0.000545048378074
264.033004126       0.000413682751781
264.533066633       0.000312767188543
265.033129141       0.00023555645787
265.533191649       0.000176720794709
266.033254157       0.000132068114406
266.533316665       9.83161751402e-05
