#  x                 y             frequency           intensity
0.0       1.57351299057e-13       61.77       1.38896
0.500062507813       2.54465615496e-13       104.14       2.05534
1.00012501563       4.09912341428e-13       209.95       4.00982
1.50018752344       6.57742635522e-13       218.12       86.24433
2.00025003125       1.05129380997e-12       295.72       21.88870
2.50031253907       1.67376828085e-12       328.38       21.07457
3.00037504688       2.65442019291e-12       362.85       81.48801
3.50043755469       4.19321494092e-12       458.76       5.53776
4.00050006251       6.59823364016e-12       552.97       26.77663
4.50056257032       1.03421627474e-11       564.74       54.94900
5.00062507813       1.61472347343e-11       664.77       44.01284
5.50068758595       2.51123908855e-11       742.65       212.45640
6.00075009376       3.89028196408e-11       762.33       11.30199
6.50081260158       6.00312255585e-11       850.11       21.20809
7.00087510939       9.22733849845e-11       886.73       17.17108
7.5009376172       1.41279389206e-10       996.73       12.17177
8.00100012502       2.15468742756e-10       1069.41       78.74349
8.50106263283       3.27335312929e-10       1102.48       76.20723
9.00112514064       4.95341316913e-10       1150.91       135.50557
9.50118764846       7.46653942008e-10       1220.71       74.59814
10.0012501563       1.1210817511e-09       1228.57       21.68543
10.5013126641       1.6767113998e-09       1288.53       4.57211
11.0013751719       2.49794265398e-09       1348.24       33.73900
11.5014376797       3.70689021336e-09       1377.11       9.59644
12.0015001875       5.47948946873e-09       1407.81       33.15924
12.5015626953       8.06814291319e-09       1421.56       32.58155
13.0016252032       1.18334173325e-08       1500.23       5.00610
13.501687711       1.72882045728e-08       1643.82       44.29262
14.0017502188       2.51589619155e-08       1815.04       287.88328
14.5018127266       3.6470242869e-08       2982.90       61.53672
15.0018752344       5.26608307686e-08       3043.95       16.22513
15.5019377422       7.57425408635e-08       3102.69       14.96119
16.00200025       1.08516342245e-07       3506.82       1.97309
16.5020627578       1.54865092504e-07       3600.43       7.35887
17.0021252657       2.20148149341e-07       3725.63       69.27302
17.5021877735       3.11730757306e-07       3780.04       17.67754
18.0022502813       4.3969080467e-07
18.5023127891       6.17757781818e-07
19.0023752969       8.64554109491e-07
19.5024378047       1.20522809536e-06
20.0025003125       1.67359136969e-06
20.5025628204       2.31490259197e-06
21.0026253282       3.18947445193e-06
21.502687836       4.37732353582e-06
22.0027503438       5.98413358489e-06
22.5028128516       8.14886316631e-06
23.0028753594       1.105339993e-05
23.5029378672       1.49347464966e-05
24.003000375       2.01003185286e-05
24.5030628829       2.69470443513e-05
25.0031253907       3.59850779333e-05
25.5031878985       4.7867072907e-05
26.0032504063       6.34241137526e-05
26.5033129141       8.37095595376e-05
27.0033754219       0.000110052222904
27.5034379297       0.000144120478205
28.0035004376       0.000187999062178
28.5035629454       0.000244280490936
29.0036254532       0.000316173158996
29.503687961       0.000407628298144
30.0037504688       0.000523488042523
30.5038129766       0.00066965685558
31.0038754844       0.000853298506509
31.5039379922       0.00108306061882
32.0040005001       0.0013693285305
32.5040630079       0.00172450978189
33.0041255157       0.00216334996208
33.5041880235       0.00270327987656
34.0042505313       0.00336479302943
34.5043130391       0.00417185122889
35.0043755469       0.00515231471573
35.5044380548       0.0063383915803
36.0045005626       0.0077670993822
36.5045630704       0.00948072983906
37.0046255782       0.0115273052382
37.504688086       0.0139610128972
38.0047505938       0.0168426016189
38.5048131016       0.0202397217356
39.0048756095       0.0242271881087
39.5049381173       0.0288871434663
40.0050006251       0.0343090978317
40.5050631329       0.0405898186784
41.0051256407       0.0478330459609
41.5051881485       0.0561490064815
42.0052506563       0.0656537032778
42.5053131641       0.0764679579963
43.005375672       0.0887161876401
43.5054381798       0.102524901726
44.0055006876       0.118020911788
44.5055631954       0.135329252309
45.0056257032       0.154570820466
45.505688211       0.175859751437
46.0057507188       0.199300556229
46.5058132267       0.22498505977
47.0058757345       0.252989188114
47.5059382423       0.283369664561
48.0060007501       0.316160684972
48.5060632579       0.351370652032
49.0061257657       0.388979056243
49.5061882735       0.428933597532
50.0062507813       0.471147645077
50.5063132892       0.515498133896
51.006375797       0.561823994534
51.5064383048       0.60992520666
52.0065008126       0.65956255827
52.5065633204       0.710458179682
53.0066258282       0.762296905502
53.506688336       0.814728498759
54.0067508439       0.867370749697
54.5068133517       0.919813437986
55.0068758595       0.971623121981
55.5069383673       1.02234869299
56.0070008751       1.07152760718
56.5070633829       1.11869268374
57.0071258907       1.16337933589
57.5071883985       1.20513308286
58.0072509064       1.24351717595
58.5073134142       1.27812016159
59.007375922       1.30856319972
59.5074384298       1.33450695596
60.0075009376       1.35565789282
60.5075634454       1.37177379715
61.0076259532       1.38266839845
61.5076884611       1.38821495517
62.0077509689       1.38834871273
62.5078134767       1.38306816691
63.0078759845       1.37243509866
63.5079384923       1.35657337961
64.0080010001       1.33566658152
64.5080635079       1.30995445473
65.0081260158       1.27972837143
65.5081885236       1.24532585604
66.0082510314       1.20712434785
66.5083135392       1.16553435903
67.008376047       1.12099220349
67.5084385548       1.07395247906
68.0085010626       1.02488048638
68.5085635704       0.974244763742
69.0086260783       0.922509907032
69.5086885861       0.87012983001
70.0087510939       0.817541601539
70.5088136017       0.765159975055
71.0088761095       0.713372701757
71.5089386173       0.662536693939
72.0090011251       0.612975079331
72.509063633       0.564975162259
73.0091261408       0.518787283557
73.5091886486       0.474624549257
74.0092511564       0.432663378617
74.5093136642       0.393044805446
75.009376172       0.355876453307
75.5094386798       0.321235094946
76.0095011876       0.289169699391
76.5095636955       0.259704866279
77.0096262033       0.232844545924
77.5096887111       0.208575945042
78.0097512189       0.18687352155
78.5098137267       0.167702976978
79.0098762345       0.151025161343
79.5099387423       0.13679981243
80.0100012502       0.124989058925
80.510063758       0.115560624391
81.0101262658       0.108490676462
81.5101887736       0.103766272658
82.0102512814       0.101387360803
82.5103137892       0.101368298193
83.010376297       0.103738859406
83.5104388049       0.108544708217
84.0105013127       0.115847314577
84.5105638205       0.125723303338
85.0106263283       0.138263227516
85.5106888361       0.153569765763
86.0107513439       0.171755351398
86.5108138517       0.192939249158
87.0108763595       0.217244105783
87.5109388674       0.244792011688
88.0110013752       0.275700123207
88.511063883       0.310075908074
89.0111263908       0.348012090607
89.5111888986       0.389581387067
90.0112514064       0.43483113547
90.5113139142       0.48377793704
91.0113764221       0.536402437952
91.5114389299       0.592644389359
92.0115014377       0.652398130145
92.5115639455       0.715508639905
93.0116264533       0.781768308634
93.5116889611       0.850914564033
94.0117514689       0.922628486992
94.5118139767       0.996534530355
95.0118764846       1.07220143566
95.5119389924       1.14914441741
96.0120015002       1.22682865492
96.512064008       1.30467409871
97.0121265158       1.38206156274
97.5121890236       1.45834003609
98.0122515314       1.53283511011
98.5123140393       1.60485837979
99.0123765471       1.67371764366
99.5124390549       1.73872769532
100.012501563       1.79922147361
100.512564071       1.85456131845
101.012626578       1.90415006674
101.512689086       1.94744171721
102.012751594       1.98395139721
102.512814102       2.01326437552
103.01287661       2.03504388607
103.512939117       2.04903755501
104.013001625       2.05508225898
104.513064133       2.05310728291
105.013126641       2.04313569152
105.513189149       2.02528387666
106.013251656       1.99975929286
106.513314164       1.96685644205
107.013376672       1.92695121623
107.51343918       1.88049374963
108.013501688       1.8279999704
108.513564196       1.77004207316
109.013626703       1.70723815824
109.513689211       1.64024129901
110.013751719       1.56972830684
110.513814227       1.49638846173
111.013876735       1.42091246791
111.513939242       1.34398187705
112.01400175       1.26625919833
112.514064258       1.18837888574
113.014126766       1.11093935996
113.514189274       1.03449618589
114.014251781       0.959556489162
114.514314289       0.886574657145
115.014376797       0.81594933309
115.514439305       0.74802167751
116.014501813       0.683074839623
116.514564321       0.621334554474
117.014626828       0.562970758863
117.514689336       0.508100101704
118.014751844       0.456789212218
118.514814352       0.409058582242
119.01487686       0.364886916761
119.514939367       0.324215809115
120.015001875       0.286954603682
120.515064383       0.252985318532
121.015126891       0.222167512998
121.515189399       0.194342999484
122.015251906       0.169340314575
122.515314414       0.146978880809
123.015376922       0.127072806836
123.51543943       0.109434289529
124.015501938       0.0938765964335
124.515564446       0.080216620498
125.015626953       0.0682770109378
125.515689461       0.0578878942599
126.015751969       0.0488882077936
126.515814477       0.0411266745436
127.015876985       0.0344624528625
127.515939492       0.0287654974492
128.016002       0.0239166696844
128.516064508       0.0198076354831
129.016127016       0.0163405879127
129.516189524       0.0134278299734
130.016252032       0.0109912504031
130.516314539       0.00896172233209
131.016377047       0.00727845126335
131.516439555       0.00588829535422
132.016502063       0.00474507746098
132.516564571       0.00380890499293
133.016627078       0.00304551039757
133.516689586       0.00242562212914
134.016752094       0.00192437328224
134.516814602       0.00152075272758
135.01687711       0.00119710157598
135.516939617       0.000938656115536
136.017002125       0.00073313700068
136.517064633       0.000570383397685
137.017127141       0.000442029980621
137.517189649       0.000341224094304
138.017252157       0.000262380023181
138.517314664       0.000200967095317
139.017377172       0.000153328277859
139.51743968       0.000116525955602
140.017502188       8.8211701968e-05
140.517564696       6.65170289535e-05
141.017627203       4.9962320054e-05
141.517689711       3.73813915592e-05
142.017752219       2.7859379841e-05
142.517814727       2.06819049529e-05
143.017877235       1.52937062454e-05
143.517939742       1.12651781337e-05
144.01800225       8.26544986426e-06
144.518064758       6.04084985646e-06
145.018127266       4.39777190914e-06
145.518189774       3.18911716125e-06
146.018252282       2.30362277993e-06
146.518314789       1.657507014e-06
147.018377297       1.18796190806e-06
147.518439805       8.48111217691e-07
148.018502313       6.03123571128e-07
148.518564821       4.27231349118e-07
149.018627328       3.01455701204e-07
149.518689836       2.11879074961e-07
150.018752344       1.48339968118e-07
150.518814852       1.03451543072e-07
151.01887736       7.18673456142e-08
151.518939867       4.97345797819e-08
152.019002375       3.4289010837e-08
152.519064883       2.35562779207e-08
153.019127391       1.6132767052e-08
153.519189899       1.10256968941e-08
154.019252407       7.5370935651e-09
154.519314914       5.18019467679e-09
155.019377422       3.61978474142e-09
155.51943993       2.63023251326e-09
156.019502438       2.06674392638e-09
156.519564946       1.84669832389e-09
157.019627453       1.93901241228e-09
157.519689961       2.36036970614e-09
158.019752469       3.17794526631e-09
158.519814977       4.51902235385e-09
159.019877485       6.58871492745e-09
159.519939992       9.69795886964e-09
160.0200025       1.43051083932e-08
160.520065008       2.10759841262e-08
161.020127516       3.09692050109e-08
161.520190024       4.53562736372e-08
162.020252532       6.61893993172e-08
162.520315039       9.62347241154e-08
163.020377547       1.39394834508e-07
163.520440055       2.0115266851e-07
164.020502563       2.89179766878e-07
164.520565071       4.14166029288e-07
165.020627578       5.90946681225e-07
165.520690086       8.40026235254e-07
166.020752594       1.18963033488e-06
166.520815102       1.67845634766e-06
167.02087761       2.35934469695e-06
167.520940118       3.3041579623e-06
168.021002625       4.61023710345e-06
168.521065133       6.40890783203e-06
169.021127641       8.87664003588e-06
169.521190149       1.22496250442e-05
170.021252657       1.68427362611e-05
170.521315164       2.30740863384e-05
171.021377672       3.14966979946e-05
171.52144018       4.2839176696e-05
172.021502688       5.80577242059e-05
172.521565196       7.84023767604e-05
173.021627703       0.000105501006508
173.521690211       0.000141465408024
174.021752719       0.000189024723378
174.521815227       0.000251692561666
175.021877735       0.000333975466404
175.521940243       0.000441631902865
176.02200275       0.00058199270505
176.522065258       0.000764355967498
177.022127766       0.00100047172006
177.522190274       0.00130513441348
178.022252782       0.001696904298
178.522315289       0.00219898222157
179.022377797       0.00284026622875
179.522440305       0.00365662262015
180.022502813       0.00469240883724
180.522565321       0.00600229066016
181.022627828       0.00765340171663
181.522690336       0.00972789914786
182.022752844       0.012325975382
182.522815352       0.0155693922094
183.02287786       0.0196056095805
183.522940368       0.0246125875383
184.023002875       0.0308043451948
184.523065383       0.0384373653074
185.023127891       0.0478179364105
185.523190399       0.0593105260962
186.023252907       0.0733472783375
186.523315414       0.0904387240299
187.023377922       0.111185786428
187.52344043       0.136293151034
188.023502938       0.16658405184
188.523565446       0.203016501697
189.023627953       0.246700962994
189.523690461       0.298919414898
190.023752969       0.361145724222
190.523815477       0.435067167923
191.023877985       0.52260688577
191.523940493       0.625946961737
192.024003       0.747551742409
192.524065508       0.890190900895
193.024128016       1.05696164677
193.524190524       1.25130936847
194.024253032       1.47704587721
194.524315539       1.73836430428
195.024378047       2.03984959149
195.524440555       2.38648341227
196.024503063       2.78364227509
196.524565571       3.23708749814
197.024628079       3.75294571139
197.524690586       4.33767854789
198.024753094       4.99804023627
198.524815602       5.74102190976
199.02487811       6.57378160841
199.524940618       7.50355917656
200.025003125       8.53757554942
200.525065633       9.68291628242
201.025128141       10.9463996029
201.525190649       12.3344297502
202.025253157       13.8528369118
202.525315664       15.5067056416
203.025378172       17.3001942581
203.52544068       19.2363483311
204.025503188       21.3169119676
204.525565696       23.5421411687
205.025628204       25.9106240257
205.525690711       28.4191129242
206.025753219       31.0623742167
206.525815727       33.8330609574
207.025878235       36.7216142746
207.525940743       39.716198743
208.02600325       42.8026767149
208.526065758       45.9646259605
209.026128266       49.1834041609
209.526190774       52.4382628002
210.026253282       55.706511833
210.526315789       58.9637351984
211.026378297       62.1840558266
211.526440805       65.3404473104
212.026503313       68.4050879118
212.526565821       71.3497511185
213.026628329       74.1462256001
213.526690836       76.7667561953
214.026753344       79.1844965459
214.526815852       81.3739632222
215.02687836       83.3114807024
215.526940868       84.9756063995
216.027003375       86.3475250989
216.527065883       87.4114026765
217.027128391       88.15468981
217.527190899       88.5683675503
218.027253407       88.6471280549
218.527315914       88.3894854511
219.027378422       87.7978136458
219.52744093       86.8783098601
220.027503438       85.6408846777
220.527565946       84.0989813848
221.027628454       82.2693292761
221.527690961       80.1716373394
222.027753469       77.8282362563
222.527815977       75.26367791
223.027878485       72.5043025437
223.527940993       69.57778433
224.0280035       66.5126663844
224.528066008       63.337896183
225.028128516       60.08237194
225.528191024       56.7745097911
226.028253532       53.4418406474
226.52831604       50.1106443809
227.028378547       46.8056276271
227.528441055       43.5496499937
228.028503563       40.3635019132
228.528566071       37.2657358185
229.028628579       34.2725508114
229.528691086       31.397729585
230.028753594       28.6526250852
230.528816102       26.0461932934
231.02887861       23.5850676045
231.528941118       21.2736695742
232.029003625       19.1143503258
232.529066133       17.1075566326
233.029128641       15.2520156239
233.529191149       13.5449321768
234.029253657       11.9821933354
234.529316165       10.5585745135
235.029378672       9.2679427622
235.52944118       8.10345299125
236.029503688       7.05773368586
236.529566196       6.12305934299
237.029628704       5.29150752877
237.529691211       4.55509911375
238.029753719       3.90592085595
238.529816227       3.33623005822
239.029878735       2.83854151602
239.529941243       2.40569738766
240.03000375       2.03092095772
240.530066258       1.70785552636
241.030128766       1.43058984512
241.530191274       1.19367163829
242.030253782       0.992110805655
242.53031629       0.821373904371
243.030378797       0.677371463813
243.530441305       0.556439606947
244.030503813       0.455317342669
244.530566321       0.371120764921
245.030628829       0.301315253088
245.530691336       0.243686621291
246.030753844       0.196312017085
246.530816352       0.157531227693
247.03087886       0.125918917633
247.530941368       0.10025819834
248.031003875       0.0795158197308
248.531066383       0.0628191767649
249.031128891       0.0494352411094
249.531191399       0.0387514589155
250.031253907       0.0302585997058
250.531316415       0.0235354975463
251.031378922       0.0182355928052
251.53144143       0.0140751596029
252.031503938       0.0108230891455
252.531566446       0.00829209119067
253.031628954       0.00633117361509
253.531691461       0.00481926227923
254.031753969       0.00365982903191
254.531816477       0.00277640385905
255.031878985       0.00210885705445
255.531941493       0.00161034823191
256.032004001       0.00124485047996
256.532066508       0.000985169579961
257.032129016       0.000811389661579
257.532191524       0.000709687746545
258.032254032       0.000671470192599
258.53231654       0.000692794015462
259.032379047       0.000774045402013
259.532441555       0.00091985642699
260.032504063       0.00113924906046
260.532566571       0.0014460030219
261.032629079       0.00185925091214
261.532691586       0.00240431033571
262.032754094       0.00311376839162
262.532816602       0.00402883890774
263.03287911       0.00520101703926
263.532941618       0.00669405922036
264.033004126       0.00858631878825
264.533066633       0.0109734686847
265.033129141       0.0139716422414
