#  x                 y             frequency           intensity
0.0       3.35300017043e-13       62.78       7.90802
0.500062507813       5.46537081048e-13       118.71       15.19425
1.00012501563       8.87378298349e-13       191.08       13.57012
1.50018752344       1.43516252945e-12       237.17       9.51729
2.00025003125       2.31204606839e-12       290.30       13.36634
2.50031253907       3.71018010881e-12       342.41       7.73059
3.00037504688       5.93057244126e-12       406.01       10.69940
3.50043755469       9.44281215772e-12       488.96       68.40475
4.00050006251       1.49764609652e-11       529.22       5.93144
4.50056257032       2.36602952761e-11       565.09       154.08656
5.00062507813       3.72335319071e-11       668.73       14.52701
5.50068758595       5.83648564774e-11       724.86       5.65038
6.00075009376       9.1132172221e-11       854.65       52.91273
6.50081260158       1.41740883509e-10       892.82       16.07385
7.00087510939       2.19594602787e-10       944.90       118.91022
7.5009376172       3.38884184481e-10       1020.18       9.46964
8.00100012502       5.20935618932e-10       1086.60       136.80404
8.50106263283       7.97663865046e-10       1125.74       21.89987
9.00112514064       1.21663105203e-09       1159.96       2.91628
9.50118764846       1.84842140024e-09       1186.26       25.49215
10.0012501563       2.79734603311e-09       1254.16       70.07862
10.5013126641       4.21691172049e-09       1291.33       82.36043
11.0013751719       6.33207338549e-09       1305.95       248.72040
11.5014376797       9.47110131952e-09       1373.59       4.10303
12.0015001875       1.41110112707e-08       1425.69       1.51277
12.5015626953       2.09420362908e-08       1436.42       76.68897
13.0016252032       3.09587052893e-08       1510.16       0.75735
13.501687711       4.55879207924e-08       1670.32       36.42408
14.0017502188       6.68682400859e-08       1839.91       239.17002
14.5018127266       9.76996739012e-08       2976.68       39.32621
15.0018752344       1.42190128986e-07       3037.43       16.60106
15.5019377422       2.06133650874e-07       3074.04       35.89923
16.00200025       2.97667524135e-07       3483.02       8.84969
16.5020627578       4.28170880695e-07       3564.53       11.73804
17.0021252657       6.13487776741e-07       3686.97       65.80870
17.5021877735       8.75583992449e-07       3768.73       43.92164
18.0022502813       1.24478063982e-06
18.5023127891       1.76275091999e-06
19.0023752969       2.48652132344e-06
19.5024378047       3.49378791944e-06
20.0025003125       4.88994531881e-06
20.5025628204       6.81733412201e-06
21.0026253282       9.4673464361e-06
21.502687836       1.30961931681e-05
22.0027503438       1.80453366299e-05
22.5028128516       2.47678333519e-05
23.0028753594       3.38621211126e-05
23.5029378672       4.61151274736e-05
24.003000375       6.25569809611e-05
24.5030628829       8.4530076494e-05
25.0031253907       0.000113775788955
25.5031878985       0.000152542746826
26.0032504063       0.00020372127339
26.5033129141       0.000271009375114
27.0033754219       0.000359116500641
27.5034379297       0.000474012199538
28.0035004376       0.00062322776175
28.5035629454       0.000816219893337
29.0036254532       0.00106480644961
29.503687961       0.00138368516147
30.0037504688       0.00179104710149
30.5038129766       0.00230929727864
31.0038754844       0.00296589514651
31.5039379922       0.00379432787046
32.0040005001       0.00483522882147
32.5040630079       0.00613765283721
33.0041255157       0.00776051819307
33.5041880235       0.00977422283262
34.0042505313       0.0122624390939
34.5043130391       0.0153240868164
35.0043755469       0.0190754792172
35.5044380548       0.0236526292078
36.0045005626       0.0292136958211
36.5045630704       0.0359415411447
37.0046255782       0.0440463576363
37.504688086       0.0537683140584
38.0047505938       0.0653801556901
38.5048131016       0.0791896812292
39.0048756095       0.0955420052462
39.5049381173       0.114821501658
40.0050006251       0.137453310989
40.5050631329       0.163904282842
41.0051256407       0.194683215704
41.5051881485       0.230340249741
42.0052506563       0.27146526545
42.5053131641       0.318685142646
43.005375672       0.372659741159
43.5054381798       0.434076477486
44.0055006876       0.503643390951
44.5055631954       0.582080619297
45.0056257032       0.67011023707
45.505688211       0.768444450671
46.0057507188       0.877772191164
46.5058132267       0.998744199086
47.0058757345       1.13195675352
47.5059382423       1.27793425918
48.0060007501       1.43711096827
48.5060632579       1.60981217645
49.0061257657       1.79623529191
49.5061882735       1.99643123064
50.0062507813       2.21028663682
50.5063132892       2.43750746234
51.006375797       2.67760446094
51.5064383048       2.92988115791
52.0065008126       3.19342484452
52.5065633204       3.46710111475
53.0066258282       3.74955241097
53.506688336       4.03920097373
54.0067508439       4.33425650073
54.5068133517       4.63272871177
55.0068758595       4.93244489337
55.5069383673       5.23107236187
56.0070008751       5.52614564068
56.5070633829       5.81509800156
57.0071258907       6.09529687492
57.5071883985       6.3640824977
58.0072509064       6.61880904179
58.5073134142       6.85688735963
59.007375922       7.07582839814
59.5074384298       7.2732862744
60.0075009376       7.44709997724
60.5075634454       7.595332662
61.0076259532       7.71630754153
61.5076884611       7.80863944438
62.0077509689       7.87126121001
62.5078134767       7.90344421805
63.0078759845       7.90481249934
63.5079384923       7.8753500467
64.0080010001       7.8154011266
64.5080635079       7.72566358338
65.0081260158       7.60717531792
65.5081885236       7.46129430729
66.0082510314       7.28967270288
66.5083135392       7.09422569798
67.008376047       6.8770959845
67.5084385548       6.64061472032
68.0085010626       6.38725999967
68.5085635704       6.1196138574
69.0086260783       5.84031884385
69.5086885861       5.55203518097
70.0087510939       5.25739945461
70.5088136017       4.95898571523
71.0088761095       4.65926975381
71.5089386173       4.36059719673
72.0090011251       4.06515592687
72.509063633       3.77495319421
73.0091261408       3.4917976333
73.5091886486       3.21728626148
74.0092511564       2.95279639594
74.5093136642       2.69948230349
75.009376172       2.45827628746
75.5094386798       2.22989382431
76.0095011876       2.01484228975
76.5095636955       1.81343276134
77.0096262033       1.62579435185
77.5096887111       1.4518905143
78.0097512189       1.29153676385
78.5098137267       1.14441928288
79.0098762345       1.0101139094
79.5099387423       0.888105055263
80.0100012502       0.777804154474
80.510063758       0.678567302398
81.0101262658       0.589711809866
81.5101887736       0.510531460702
82.0102512814       0.440310324091
82.5103137892       0.378335033182
83.010376297       0.323905496566
83.5104388049       0.276344058796
84.0105013127       0.235003169107
84.5105638205       0.199271653434
85.0106263283       0.168579713623
85.5106888361       0.142402799453
86.0107513439       0.120264513979
86.5108138517       0.101738721265
87.0108763595       0.0864510283442
87.5109388674       0.0740798107766
88.0110013752       0.0643569441241
88.511063883       0.057068392647
89.0111263908       0.0520547920125
89.5111888986       0.0492121453607
90.0112514064       0.0484927320543
90.5113139142       0.0499063061925
91.0113764221       0.0535216377715
91.5114389299       0.0594684234392
92.0115014377       0.0679395663109
92.5115639455       0.0791937954919
93.0116264533       0.0935585660025
93.5116889611       0.111433149022
94.0117514689       0.133291791134
94.5118139767       0.159686790052
95.0118764846       0.191251303836
95.5119389924       0.22870168156
96.0120015002       0.272839076884
96.512064008       0.324550082991
97.0121265158       0.384806109284
97.5121890236       0.454661208345
98.0122515314       0.535248057509
98.5123140393       0.627771804403
99.0123765471       0.733501501307
99.5124390549       0.853758880547
100.012501563       0.989904263244
100.512564071       1.14331944741
101.012626578       1.31538748869
101.512689086       1.50746936801
102.012751594       1.72087763367
102.512814102       1.95684721032
103.01287661       2.21650368029
103.512939117       2.50082946282
104.013001625       2.81062843799
104.513064133       3.14648968297
105.013126641       3.5087511015
105.513189149       3.89746383001
106.013251656       4.31235838947
106.513314164       4.75281361567
107.013376672       5.21782943798
107.51343918       5.70600458256
108.013501688       6.21552024723
108.513564196       6.74413072979
109.013626703       7.28916188705
109.513689211       7.84751815935
110.013751719       8.41569871642
110.513814227       8.98982306794
111.013876735       9.56566624165
111.513939242       10.1387033696
112.01400175       10.7041632474
112.514064258       11.257090149
113.014126766       11.7924129069
113.514189274       12.3050200022
114.014251781       12.789839179
114.514314289       13.2419198944
115.014376797       13.6565167605
115.514439305       14.0291720325
116.014501813       14.3557951493
116.514564321       14.632737348
117.014626828       14.8568594548
117.514689336       15.0255910903
118.014751844       15.1369797306
118.514814352       15.1897283139
119.01487686       15.1832203802
119.514939367       15.1175320635
120.015001875       14.9934306089
120.515064383       14.8123594562
121.015126891       14.5764102954
121.515189399       14.2882828494
122.015251906       13.9512334665
122.515314414       13.5690138899
123.015376922       13.1458018143
123.51543943       12.6861250237
124.015501938       12.1947810338
124.515564446       11.6767542244
125.015626953       11.137132451
125.515689461       10.5810250637
126.015751969       10.0134841467
126.515814477       9.43943062624
127.015876985       8.86358668597
127.515939492       8.29041568632
128.016002       7.72407052155
128.516064508       7.16835106863
129.016127016       6.62667110221
129.516189524       6.10203477597
130.016252032       5.59702251237
130.516314539       5.11378590812
131.016377047       4.65405105688
131.516439555       4.21912951986
132.016502063       3.80993604005
132.516564571       3.42701200044
133.016627078       3.07055356872
133.516689586       2.74044345012
134.016752094       2.43628518303
134.516814602       2.15743895503
135.01687711       1.90305798586
135.516939617       1.67212461312
136.017002125       1.46348532133
136.517064633       1.27588407013
137.017127141       1.10799339775
137.517189649       0.958442896928
138.017252157       0.825844778233
138.517314664       0.708816346754
139.017377172       0.605999319459
139.51743968       0.516076000516
140.017502188       0.437782408783
140.517564696       0.369918515113
141.017627203       0.311355796775
141.517689711       0.261042352656
142.017752219       0.218005846814
142.517814727       0.181354560486
143.017877235       0.150276835199
143.517939742       0.124039183749
144.01800225       0.101983333018
144.518064758       0.0835224444367
145.018127266       0.0681367359292
145.518189774       0.0553687047073
146.018252282       0.0448181245132
146.518314789       0.0361369649811
147.018377297       0.0290243554716
147.518439805       0.0232216917756
148.018502313       0.0185079619817
148.518564821       0.0146953479113
149.018627328       0.0116251410578
149.518689836       0.00916399701749
150.018752344       0.00720053994888
150.518814852       0.00564231856298
151.01887736       0.00441310737013
151.518939867       0.00345054120014
152.019002375       0.00270406715531
152.519064883       0.0021331959179
153.019127391       0.00170603348767
153.519189899       0.00139807474728
154.019252407       0.00119124153522
154.519314914       0.00107314995368
155.019377422       0.00103659427804
155.51943993       0.00107923790541
156.019502438       0.00120350513883
156.519564946       0.00141667111808
157.019627453       0.00173115075311
157.519689961       0.00216499096895
158.019752469       0.00274257380945
158.519814977       0.00349554084086
159.019877485       0.0044639517077
159.519939992       0.00569769147091
160.0200025       0.00725814233785
160.520065008       0.00922013539514
161.020127516       0.0116741967885
161.520190024       0.0147291002562
162.020252532       0.0185147338131
162.520315039       0.0231852824986
163.020377547       0.0289227212657
163.520440055       0.0359406021443
164.020502563       0.0444881076509
164.520565071       0.0548543279925
165.020627578       0.067372702966
165.520690086       0.0824255507027
166.020752594       0.100448584827
166.520815102       0.121935299548
167.02087761       0.147441079264
167.520940118       0.17758686604
168.021002625       0.213062195832
168.521065133       0.254627393382
169.021127641       0.30311469766
169.521190149       0.359428075727
170.021252657       0.424541474351
170.521315164       0.499495257024
171.021377672       0.585390580609
171.52144018       0.683381481899
172.021502688       0.794664471195
172.521565196       0.920465468295
173.021627703       1.06202396674
173.521690211       1.22057437489
174.021752719       1.39732455689
174.521815227       1.59343168245
175.021877735       1.8099755891
175.521940243       2.04792996329
176.02200275       2.30813175386
176.522065258       2.59124933926
177.022127766       2.89775007618
177.522190274       3.22786795564
178.022252782       3.58157218004
178.522315289       3.95853754612
179.022377797       4.35811756876
179.522440305       4.77932130695
180.022502813       5.22079484922
180.522565321       5.6808083819
181.022627828       6.15724969472
181.522690336       6.64762487573
182.022752844       7.14906681067
182.522815352       7.65835193359
183.02287786       8.17192547804
183.522940368       8.68593525732
184.023002875       9.19627376397
184.523065383       9.69862812985
185.023127891       10.1885372378
185.523190399       10.6614550323
186.023252907       11.1128188489
186.523315414       11.5381213809
187.023377922       11.9329847329
187.52344043       12.2932348842
188.023502938       12.6149748068
188.523565446       12.8946544563
189.023627953       13.129135882
189.523690461       13.3157517908
190.023752969       13.4523560362
190.523815477       13.537364698
191.023877985       13.5697866526
191.523940493       13.5492428092
192.024003       13.475973491
192.524065508       13.3508337598
193.024128016       13.1752768119
193.524190524       12.9513258968
194.024253032       12.6815355181
194.524315539       12.3689429574
195.024378047       12.017011409
195.524440555       11.6295662136
196.024503063       11.2107258332
196.524565571       10.764829307
197.024628079       10.2963619691
197.524690586       9.80988119653
198.024753094       9.30994389022
198.524815602       8.80103727161
199.02487811       8.28751442383
199.524940618       7.773535808
200.025003125       7.26301776538
200.525065633       6.75958877582
201.025128141       6.26655399413
201.525190649       5.78686833731
202.025253157       5.32311815519
202.525315664       4.87751129284
203.025378172       4.45187515125
203.52544068       4.04766217853
204.025503188       3.66596208098
204.525565696       3.30751993376
205.025628204       2.9727592955
205.525690711       2.66180938968
206.025753219       2.37453540516
206.525815727       2.11057098752
207.025878235       1.86935203642
207.525940743       1.6501509894
208.02600325       1.45211085312
208.526065758       1.27427833575
209.026128266       1.11563553277
209.526190774       0.975129720035
210.026253282       0.851700906459
210.526315789       0.744306893124
211.026378297       0.65194567039
211.526440805       0.573675059812
212.026503313       0.508629570377
212.526565821       0.456034488595
213.026628329       0.415217259149
213.526690836       0.385616237424
214.026753344       0.366786908635
214.526815852       0.358405671665
215.02687836       0.360271281283
215.526940868       0.372304031995
216.027003375       0.394542752996
216.527065883       0.427139668674
217.027128391       0.470353165367
217.527190899       0.524538494771
218.027253407       0.590136439566
218.527315914       0.667659969077
219.027378422       0.757678923616
219.52744093       0.860802786241
220.027503438       0.977661630576
220.527565946       1.10888537274
221.027628454       1.25508150385
221.527690961       1.41681153538
222.027753469       1.59456645157
222.527815977       1.78874152807
223.027878485       1.99961094207
223.527940993       2.22730266256
224.0280035       2.47177416721
224.528066008       2.73278958072
225.028128516       3.00989886521
225.528191024       3.30241971329
226.028253532       3.60942279528
226.52831604       3.92972099184
227.028378547       4.26186320031
227.528441055       4.60413323624
228.028503563       4.95455426113
228.528566071       5.31089905439
229.028628579       5.67070631403
229.528691086       6.03130301991
230.028753594       6.38983272947
230.528816102       6.74328950374
231.02887861       7.08855698709
231.528941118       7.42245199318
232.029003625       7.74177178909
232.529066133       8.0433441254
233.029128641       8.32407893865
233.529191149       8.5810205591
234.029253657       8.81139919634
234.529316165       9.01268045106
235.029378672       9.18261161553
235.52944118       9.31926357913
236.029503688       9.42106724752
236.529566196       9.48684351258
237.029628704       9.5158259714
237.529691211       9.50767578125
238.029753719       9.46248824696
238.529816227       9.38079096116
239.029878735       9.26353354749
239.529941243       9.1120692853
240.03000375       8.92812911266
240.530066258       8.71378870577
241.030128766       8.47142950982
241.530191274       8.20369474366
242.030253782       7.91344151343
242.53031629       7.6036902454
243.030378797       7.27757268436
243.530441305       6.93827970079
244.030503813       6.58901010875
244.530566321       6.23292162053
245.030628829       5.87308495693
245.530691336       5.51244199909
246.030753844       5.15376871469
246.530816352       4.79964342425
247.03087886       4.45242079886
247.530941368       4.11421180529
248.031003875       3.78686964382
248.531066383       3.47198156399
249.031128891       3.17086629862
249.531191399       2.88457673014
250.031253907       2.61390729889
250.531316415       2.35940558205
251.031378922       2.12138741493
251.53144143       1.89995489367
252.031503938       1.69501658841
252.531566446       1.5063093073
253.031628954       1.33342078157
253.531691461       1.17581268789
254.031753969       1.03284348244
254.531816477       0.903790589358
255.031878985       0.787871560267
255.531941493       0.684263898684
256.032004001       0.592123320658
256.532066508       0.510600297861
257.032129016       0.438854799911
257.532191524       0.376069216829
258.032254032       0.32145949909
258.53231654       0.274284600672
259.032379047       0.233854349371
259.532441555       0.199535898176
260.032504063       0.170758931808
260.532566571       0.147019813941
261.032629079       0.127884863688
261.532691586       0.112992945251
262.032754094       0.102057543051
262.532816602       0.0948684768653
263.03287911       0.0912933884371
263.532941618       0.091279103448
264.033004126       0.0948529415663
264.533066633       0.102124013255
265.033129141       0.113284506055
265.533191649       0.128610925928
266.033254157       0.148465221905
266.533316665       0.173295685572
267.033379172       0.203637481901
267.53344168       0.240112635601
268.033504188       0.28342926869
268.533566696       0.334379861489
269.033629204       0.393838292087
269.533691711       0.462755399645
270.033754219       0.542152816061
270.533816727       0.633114819607
271.033879235       0.736777984249
