#  x                 y             frequency           intensity
0.0       5.91037719058e-07       45.90       8.31505
0.500062507813       8.44348061099e-07       136.11       9.28213
1.00012501563       1.20151981143e-06       155.91       26.50297
1.50018752344       1.70311304251e-06       218.85       1.89742
2.00025003125       2.40469016117e-06       295.89       7.94198
2.50031253907       3.38203339111e-06       327.12       3.07590
3.00037504688       4.73805141041e-06       397.13       14.40068
3.50043755469       6.61187690125e-06       412.79       110.23876
4.00050006251       9.19079042152e-06       519.32       18.12588
4.50056257032       1.27257702878e-05       603.69       105.25755
5.00062507813       1.75516685552e-05       640.82       22.41522
5.50068758595       2.41132557102e-05       745.21       22.32053
6.00075009376       3.29986678016e-05       791.06       24.44797
6.50081260158       4.49821361498e-05       881.86       170.83978
7.00087510939       6.10782882516e-05       980.62       4.07487
7.5009376172       8.26107855174e-05       1028.32       25.09703
8.00100012502       0.000111298614797       1075.23       43.55285
8.50106263283       0.00014936398077       1115.94       301.25628
9.00112514064       0.000199666457693       1152.95       38.30615
9.50118764846       0.000265868851536       1210.06       4.75096
10.0012501563       0.000352641093051       1224.81       19.07232
10.5013126641       0.000465909420061       1286.98       7.59507
11.0013751719       0.000613159098148       1343.87       6.40449
11.5014376797       0.000803799950567       1381.98       1.82007
12.0015001875       0.00104960498942       1401.65       14.30258
12.5015626953       0.0013652334196       1427.27       58.92067
13.0016252032       0.00176885017208       1513.23       1.08320
13.501687711       0.00228285484854       1673.92       27.52412
14.0017502188       0.00293473344747       1815.56       293.27972
14.5018127266       0.00375804640091       2968.14       52.66917
15.0018752344       0.00479356617684       3053.86       11.44507
15.5019377422       0.00609057688025       3110.73       12.81989
16.00200025       0.00770834678948       3488.69       2.26347
16.5020627578       0.00971778246498       3557.51       5.17556
17.0021252657       0.0122032698318       3709.61       66.21784
17.5021877735       0.0152647033388       3775.56       54.63150
18.0022502813       0.0190196988237
18.5023127891       0.0236059789641
19.0023752969       0.0291839121228
19.5024378047       0.0359391759593
20.0025003125       0.0440855064377
20.5025628204       0.0538674808908
21.0026253282       0.065563270795
21.502687836       0.0794872861209
22.0027503438       0.095992618919
22.5028128516       0.115473179618
23.0028753594       0.13836540593
23.5029378672       0.165149411919
24.003000375       0.196349434379
24.5030628829       0.232533426132
25.0031253907       0.274311641806
25.5031878985       0.322334062226
26.0032504063       0.377286509328
26.5033129141       0.439885315428
27.0033754219       0.510870429339
27.5034379297       0.590996867646
28.0035004376       0.681024452827
28.5035629454       0.781705820722
29.0036254532       0.893772727792
29.503687961       1.01792074311
30.0037504688       1.15479246987
30.5038129766       1.30495950517
31.0038754844       1.46890341282
31.5039379922       1.64699605011
32.0040005001       1.83947965316
32.5040630079       2.04644714411
33.0041255157       2.26782317383
33.5041880235       2.50334645402
34.0042505313       2.7525539585
34.5043130391       3.01476758394
35.0043755469       3.2890838522
35.5044380548       3.57436720855
36.0045005626       3.86924742144
36.5045630704       4.17212151966
37.0046255782       4.48116061251
37.504688086       4.79432182928
38.0047505938       5.10936548855
38.5048131016       5.4238774684
39.0048756095       5.73529660009
39.5049381173       6.04094675436
40.0050006251       6.33807313682
40.5050631329       6.62388216231
41.0051256407       6.89558414312
41.5051881485       7.15043790853
42.0052506563       7.38579637751
42.5053131641       7.59915203828
43.005375672       7.78818125003
43.5054381798       7.95078627707
44.0055006876       8.08513399464
44.5055631954       8.18969026907
45.0056257032       8.26324911118
45.505688211       8.30495582857
46.0057507188       8.31432355527
46.5058132267       8.29124271188
47.0058757345       8.23598313914
47.5059382423       8.14918884688
48.0060007501       8.03186552114
48.5060632579       7.88536112847
49.0061257657       7.7113401402
49.5061882735       7.51175206592
50.0062507813       7.28879512748
50.5063132892       7.04487601937
51.006375797       6.78256678353
51.5064383048       6.50455987606
52.0065008126       6.21362251732
52.5065633204       5.91255139806
53.0066258282       5.60412876224
53.506688336       5.29108080766
54.0067508439       4.97603923939
54.5068133517       4.661506686
55.0068758595       4.34982654777
55.5069383673       4.04315769625
56.0070008751       3.74345429086
56.5070633829       3.45245082633
57.0071258907       3.1716523796
57.5071883985       2.90232989043
58.0072509064       2.64552019123
58.5073134142       2.40203039972
59.007375922       2.1724462066
59.5074384298       1.95714352938
60.0075009376       1.75630296381
60.5075634454       1.56992644501
61.0076259532       1.39785553027
61.5076884611       1.23979073299
62.0077509689       1.09531136932
62.5078134767       0.96389542397
63.0078759845       0.844938995952
63.5079384923       0.737774946175
64.0080010001       0.641690433677
64.5080635079       0.555943093879
65.0081260158       0.479775677506
65.5081885236       0.412429031305
66.0082510314       0.35315335938
66.5083135392       0.301217755819
67.008376047       0.25591804429
67.5084385548       0.216582997935
68.0085010626       0.182579043085
68.5085635704       0.15331357305
69.0086260783       0.128237013978
69.5086885861       0.106843794031
70.0087510939       0.0886723705674
70.5088136017       0.0733044685717
71.0088761095       0.060363677921
71.5089386173       0.0495135482279
72.0090011251       0.0404553086835
72.509063633       0.0329253273741
73.0091261408       0.0266924106302
73.5091886486       0.0215550287186
74.0092511564       0.0173385401037
74.5093136642       0.0138924730121
75.009376172       0.0110879104375
75.5094386798       0.0088150132571
76.0095011876       0.00698070593169
76.5095636955       0.00550654040273
77.0096262033       0.00432674629175
77.5096887111       0.00338646930766
78.0097512189       0.00264019480346
78.5098137267       0.00205034959022
79.0098762345       0.00158607229191
79.5099387423       0.00122214058114
80.0100012502       0.000938042440625
80.510063758       0.000717178019399
81.0101262658       0.000546178575593
81.5101887736       0.000414329307938
82.0102512814       0.000313083477048
82.5103137892       0.000235656019517
83.010376297       0.000176685790367
83.5104388049       0.000131956572584
84.0105013127       9.81680189132e-05
84.5105638205       7.27487037513e-05
85.0106263283       5.37044347116e-05
85.5106888361       3.94958852526e-05
86.0107513439       2.8940449505e-05
86.5108138517       2.11339816315e-05
87.0108763595       1.53887626357e-05
87.5109388674       1.11846388611e-05
88.0110013752       8.13080233143e-06
88.511063883       5.93613920945e-06
89.0111263908       4.38646577402e-06
89.5111888986       3.32730890602e-06
90.0112514064       2.65117796555e-06
90.5113139142       2.28852505438e-06
91.0113764221       2.20180887766e-06
91.5114389299       2.38227150442e-06
92.0115014377       2.84921489855e-06
92.5115639455       3.65173265961e-06
93.0116264533       4.87301943092e-06
93.5116889611       6.6375533792e-06
94.0117514689       9.12163360991e-06
94.5118139767       1.25679621138e-05
95.0118764846       1.73051968362e-05
95.5119389924       2.37736769571e-05
96.0120015002       3.25588419179e-05
96.512064008       4.44342406958e-05
97.0121265158       6.04164658123e-05
97.5121890236       8.1834855709e-05
98.0122515314       0.000110419396851
98.5123140393       0.000148410929329
99.0123765471       0.000198698521022
99.5124390549       0.00026498972684
100.012501563       0.000352020388863
100.512564071       0.000465811652749
101.012626578       0.000613982962025
101.512689086       0.000806130923303
102.012751594       0.00105428508148
102.512814102       0.00137345276318
103.01287661       0.00178226618567
103.512939117       0.00230374592027
104.013001625       0.00296619546264
104.513064133       0.0038042420018
105.013126641       0.00486003838408
105.513189149       0.00618464061471
106.013251656       0.00783957389217
106.513314164       0.00989859798649
107.013376672       0.0124496796051
107.51343918       0.0155971750955
108.013501688       0.0194642212802
108.513564196       0.0241953252898
109.013626703       0.0299591358808
109.513689211       0.0369513688415
110.013751719       0.0453978477357
110.513814227       0.0555576084784
111.013876735       0.0677260022579
111.513939242       0.0822377163683
112.01400175       0.0994696169604
112.514064258       0.119843302033
113.014126766       0.143827237752
113.514189274       0.171938337103
114.014251781       0.20474282775
114.514314289       0.242856246672
115.014376797       0.286942393626
115.514439305       0.337711074729
116.014501813       0.395914472406
116.514564321       0.462341989548
117.014626828       0.537813434802
117.514689336       0.623170443002
118.014751844       0.719266060444
118.514814352       0.826952468955
119.01487686       0.947066875423
119.514939367       1.08041565403
120.015001875       1.22775689577
120.515064383       1.38978159274
121.015126891       1.56709376056
121.515189399       1.76018988028
122.015251906       1.96943811613
122.515314414       2.19505783728
123.015376922       2.43710003479
123.51543943       2.69542927658
124.015501938       2.96970788123
124.515564446       3.25938300985
125.015626953       3.56367737468
125.515689461       3.88158423754
126.015751969       4.21186732214
126.515814477       4.55306618767
127.015876985       4.90350750962
127.515939492       5.26132258567
128.016002       5.62447123395
128.516064508       5.99077207896
129.016127016       6.35793903266
129.516189524       6.72362357822
130.016252032       7.08546225812
130.516314539       7.44112856311
131.016377047       7.78838822047
131.516439555       8.12515669634
132.016502063       8.44955756474
132.516564571       8.75998026172
133.016627078       9.05513564348
133.516689586       9.33410770717
134.016752094       9.59639981739
134.516814602       9.84197381274
135.01687711       10.0712804474
135.516939617       10.2852797531
136.017002125       10.485450084
136.517064633       10.6737848335
137.017127141       10.8527760752
137.517189649       11.0253846822
138.017252157       11.1949968115
138.517314664       11.3653669909
139.017377172       11.5405484102
139.51743968       11.7248113878
140.017502188       11.9225513438
140.517564696       12.1381879564
141.017627203       12.3760574928
141.517689711       12.6403005905
142.017752219       12.9347479952
142.517814727       13.262806944
143.017877235       13.6273509986
143.517939742       14.0306161851
144.01800225       14.4741062694
144.518064758       14.9585099012
145.018127266       15.4836321811
145.518189774       16.0483429509
146.018252282       16.6505437845
146.518314789       17.287155258
147.018377297       17.9541256275
147.518439805       18.646461539
148.018502313       19.3582808492
148.518564821       20.0828870769
149.018627328       20.812864423
149.518689836       21.5401917379
150.018752344       22.2563732703
150.518814852       22.9525835347
151.01887736       23.6198231987
151.518939867       24.2490825257
152.019002375       24.8315086386
152.519064883       25.3585726932
153.019127391       25.822232991
153.519189899       26.215090105
154.019252407       26.5305302636
154.519314914       26.7628535076
155.019377422       26.9073835216
155.51943993       26.9605565146
156.019502438       26.9199870794
156.519564946       26.7845095789
157.019627453       26.5541942644
157.519689961       26.2303380129
158.019752469       25.8154302458
158.519814977       25.3130952466
159.019877485       24.7280126993
159.519939992       24.0658188151
160.0200025       23.3329908712
160.520065008       22.5367183512
161.020127516       21.6847641333
161.520190024       20.7853193202
162.020252532       19.8468553385
162.520315039       18.8779768567
163.020377547       17.8872788947
163.520440055       16.8832112228
164.020502563       15.8739527975
164.520565071       14.8672985633
165.020627578       13.8705604897
165.520690086       12.89048422
166.020752594       11.9331822056
166.520815102       11.004083707
167.02087761       10.1079015706
167.520940118       9.24861525366
168.021002625       8.42946918741
168.521065133       7.65298523844
169.021127641       6.92098776529
169.521190149       6.23463957163
170.021252657       5.594486929
170.521315164       5.00051178033
171.021377672       4.45218923513
171.52144018       3.94854852341
172.021502688       3.48823567883
172.521565196       3.06957636573
173.021627703       2.69063743892
173.521690211       2.34928602089
174.021752719       2.04324508998
174.521815227       1.77014478543
175.021877735       1.52756884504
175.521940243       1.31309579095
176.02200275       1.12433466389
176.522065258       0.958955272314
177.022127766       0.814713066855
177.522190274       0.689468871142
178.022252782       0.581203796735
178.522315289       0.488029742823
179.022377797       0.40819593182
179.522440305       0.340091961808
180.022502813       0.282247868098
180.522565321       0.233331681752
181.022627828       0.192144955214
181.522690336       0.15761669723
182.022752844       0.128796123445
182.522815352       0.104844588047
183.02287786       0.0850270177672
183.522940368       0.0687031244242
184.023002875       0.0553186276071
184.523065383       0.0443966763727
185.023127891       0.0355296189939
185.523190399       0.0283712335186
186.023252907       0.0226294996449
186.523315414       0.0180599643921
187.023377922       0.0144597302578
187.52344043       0.0116620748627
188.023502938       0.00953169521255
188.523565446       0.00796055731394
189.023627953       0.00686432253964
189.523690461       0.00617931541224
190.023752969       0.00585999291297
190.523815477       0.00587687258435
191.023877985       0.00621487517098
191.523940493       0.00687203695829
192.024003       0.00785854699657
192.524065508       0.00919606476212
193.024128016       0.0109172742868
193.524190524       0.0130656312175
194.024253032       0.0156952595399
194.524315539       0.018870954758
195.024378047       0.0226682501685
195.524440555       0.0271735025419
196.024503063       0.0324839531234
196.524565571       0.0387077195187
197.024628079       0.0459636738933
197.524690586       0.0543811631918
198.024753094       0.0640995279579
198.524815602       0.0752673780416
199.02487811       0.0880415862095
199.524940618       0.10258596463
200.025003125       0.119069594548
200.525065633       0.137664786315
201.025128141       0.158544655391
201.525190649       0.181880309958
202.025253157       0.207837657352
202.525315664       0.236573849447
203.025378172       0.268233401204
203.52544068       0.302944031467
204.025503188       0.34081229036
204.525565696       0.381919052821
205.025628204       0.426314972293
205.525690711       0.474016001812
206.025753219       0.524999101067
206.525815727       0.579198256675
207.025878235       0.636500948517
207.525940743       0.696745196714
208.02600325       0.759717321434
208.526065758       0.825150540666
209.026128266       0.892724519333
209.526190774       0.962065966521
210.026253282       1.03275035635
210.526315789       1.10430482248
211.026378297       1.17621224719
211.526440805       1.24791653344
212.026503313       1.31882901474
212.526565821       1.38833592206
213.026628329       1.45580679267
213.526690836       1.5206036725
214.026753344       1.58209093322
214.526815852       1.63964549928
215.02687836       1.69266725917
215.526940868       1.74058942014
216.027003375       1.78288855861
216.527065883       1.81909411775
217.027128391       1.84879711196
217.527190899       1.87165781329
218.027253407       1.88741221792
218.527315914       1.89587712065
219.027378422       1.89695366104
219.52744093       1.89062924517
220.027503438       1.87697779095
220.527565946       1.85615829002
221.027628454       1.82841172565
221.527690961       1.79405643002
222.027753469       1.75348200591
222.527815977       1.70714197523
223.027878485       1.655545348
223.527940993       1.59924733102
224.0280035       1.53883941272
224.528066008       1.4749390711
225.028128516       1.40817935363
225.528191024       1.33919857271
226.028253532       1.26863034721
226.52831604       1.19709420185
227.028378547       1.12518691108
227.528441055       1.05347474507
228.028503563       0.982486742819
228.528566071       0.912709103182
229.028628579       0.844580749395
229.528691086       0.778490088157
230.028753594       0.714772951575
230.528816102       0.653711680061
231.02887861       0.595535277626
231.528941118       0.540420548487
232.029003625       0.488494105935
232.529066133       0.439835131186
233.029128641       0.394478751574
233.529191149       0.352419903654
234.029253657       0.313617547388
234.529316165       0.27799910206
235.029378672       0.245464982365
235.52944118       0.215893123721
236.029503688       0.189143398484
236.529566196       0.165061838858
237.029628704       0.143484597228
237.529691211       0.124241589774
238.029753719       0.107159784082
238.529816227       0.0920661056005
239.029878735       0.0787899507383
239.529941243       0.0671653060744
240.03000375       0.0570324831349
240.530066258       0.0482394865736
241.030128766       0.0406430402195
241.530191274       0.0341093004166
242.030253782       0.0285142894435
242.53031629       0.0237440837176
243.030378797       0.0196947921038
243.530441305       0.0162723591615
244.030503813       0.0133922267652
244.530566321       0.0109788854198
245.030628829       0.00896534394605
245.530691336       0.00729254322024
246.030753844       0.00590873645603
246.530816352       0.00476885526982
247.03087886       0.00383387757297
247.530941368       0.00307021028615
248.031003875       0.00244909703737
248.531066383       0.00194605843752
249.031128891       0.00154037025403
249.531191399       0.00121458284176
250.031253907       0.000954083539259
250.531316415       0.00074670239146
251.031378922       0.000582360497847
251.53144143       0.000452759487014
252.031503938       0.000351110057738
252.531566446       0.000271897176638
253.031628954       0.000210679355942
253.531691461       0.000163919426394
254.031753969       0.000128844346777
254.531816477       0.000103331832554
255.031878985       8.58219250762e-05
255.531941493       7.52520462008e-05
256.032004001       7.10145811105e-05
256.532066508       7.29365978528e-05
257.032129016       8.12819415342e-05
257.532191524       9.67766322747e-05
258.032254032       0.000120659248436
258.53231654       0.000154758790321
259.032379047       0.00020160339414
259.532441555       0.000264564199685
260.032504063       0.000348039663227
260.532566571       0.000457686641175
261.032629079       0.000600705635805
261.532691586       0.000786188671262
262.032754094       0.00102553932678
262.532816602       0.0013329754559
263.03287911       0.00172612601573
263.532941618       0.0022267341572
264.033004126       0.00286147921205
264.533066633       0.00366293036694
265.033129141       0.00467064454224
265.533191649       0.00593242018007
266.033254157       0.00750571717681
266.533316665       0.00945925094301
267.033379172       0.011874765415
267.53344168       0.014848985657
