#  x                 y             frequency           intensity
0.0       6.54528118029e-07       44.20       2.78281
0.500062507813       9.22711484929e-07       126.61       3.89271
1.00012501563       1.29570655924e-06       184.64       0.94799
1.50018752344       1.81238517597e-06       256.92       59.42505
2.00025003125       2.52520975458e-06       282.10       9.58985
2.50031253907       3.50467320558e-06       314.80       80.99313
3.00037504688       4.84507730994e-06       341.30       22.30303
3.50043755469       6.67201489469e-06       425.56       3.11468
4.00050006251       9.15200852692e-06       549.90       3.30707
4.50056257032       1.25048629976e-05       588.15       82.89681
5.00062507813       1.70194128318e-05       637.86       63.98303
5.50068758595       2.30734916844e-05       748.29       32.39838
6.00075009376       3.11591198466e-05       856.76       24.56132
6.50081260158       4.19141009914e-05       871.71       148.76083
7.00087510939       5.61614409807e-05       909.43       42.08756
7.5009376172       7.49582505735e-05       1022.74       48.44460
8.00100012502       9.96560696438e-05       1070.83       98.21175
8.50106263283       0.000131974851115       1105.63       122.27507
9.00112514064       0.000174093164484       1154.26       74.08809
9.50118764846       0.00022875751559       1198.80       77.71552
10.0012501563       0.000299414022604       1248.71       12.45710
10.5013126641       0.000390366026219       1328.86       4.37401
11.0013751719       0.000506961529582       1349.13       45.65972
11.5014376797       0.000655814641191       1380.64       3.61349
12.0015001875       0.000845065408435       1402.70       26.67926
12.5015626953       0.00108468255267       1422.04       22.51250
13.0016252032       0.00138681361653       1501.01       1.94500
13.501687711       0.00176618687382       1656.48       47.45025
14.0017502188       0.00224056899246       1811.82       296.60243
14.5018127266       0.00283128183775       3018.53       36.53878
15.0018752344       0.00356378091397       3036.89       9.95764
15.5019377422       0.00446829672205       3086.85       28.17122
16.00200025       0.00558053871957       3486.39       1.65401
16.5020627578       0.00694245957036       3564.34       10.15769
17.0021252657       0.00860307493697       3724.87       70.13532
17.5021877735       0.010619331185       3791.92       32.62180
18.0022502813       0.0130570100338
18.5023127891       0.015991655423
19.0023752969       0.0195095037108
19.5024378047       0.0237083938513
20.0025003125       0.0286986295107
20.5025628204       0.0346037603102
21.0026253282       0.0415612446961
21.502687836       0.0497229525252
22.0027503438       0.0592554615575
22.5028128516       0.0703400989111
23.0028753594       0.0831726764438
23.5029378672       0.0979628682584
24.003000375       0.114933179377
24.5030628829       0.134317457362
25.0031253907       0.156358903531
25.5031878985       0.181307547582
26.0032504063       0.209417159119
26.5033129141       0.240941581721
27.0033754219       0.276130489816
27.5034379297       0.315224585618
28.0035004376       0.358450272342
28.5035629454       0.406013860591
29.0036254532       0.458095386543
29.503687961       0.514842142793
30.0037504688       0.576362044616
30.5038129766       0.642716975148
31.0038754844       0.713916271654
31.5039379922       0.789910530668
32.0040005001       0.870585921398
32.5040630079       0.955759203561
33.0041255157       1.04517364684
33.5041880235       1.13849604394
34.0042505313       1.23531499698
34.5043130391       1.33514063814
35.0043755469       1.43740591895
35.5044380548       1.54146957018
36.0045005626       1.64662079507
36.5045630704       1.75208571482
37.0046255782       1.85703553698
37.504688086       1.96059636705
38.0047505938       2.06186053193
38.5048131016       2.15989923349
39.0048756095       2.25377630273
39.5049381173       2.34256278198
40.0050006251       2.42535202602
40.5050631329       2.50127498447
41.0051256407       2.56951530886
41.5051881485       2.62932391944
42.0052506563       2.68003266931
42.5053131641       2.72106675822
43.005375672       2.75195557366
43.5054381798       2.77234167361
44.0055006876       2.7819876711
44.5055631954       2.78078083537
45.0056257032       2.76873528471
45.505688211       2.74599171163
46.0057507188       2.71281464754
46.5058132267       2.66958734149
47.0058757345       2.61680439156
47.5059382423       2.55506232692
48.0060007501       2.48504839127
48.5060632579       2.40752782249
49.0061257657       2.32332995722
49.5061882735       2.23333351257
50.0062507813       2.13845140863
50.5063132892       2.03961549607
51.006375797       1.93776154199
51.5064383048       1.83381480607
52.0065008126       1.72867650872
52.5065633204       1.62321145476
53.0066258282       1.51823703178
53.506688336       1.41451375394
54.0067508439       1.3127374712
54.5068133517       1.21353331215
55.0068758595       1.1174513791
55.5069383673       1.02496416601
56.0070008751       0.936465627714
56.5070633829       0.852271790475
57.0071258907       0.772622763033
57.5071883985       0.697685982532
58.0072509064       0.627560512183
58.5073134142       0.562282196969
59.007375922       0.50182947992
59.5074384298       0.446129683821
60.0075009376       0.395065571139
60.5075634454       0.348482007555
61.0076259532       0.306192570839
61.5076884611       0.267985966035
62.0077509689       0.233632128988
62.5078134767       0.202887922284
63.0078759845       0.175502349886
63.5079384923       0.151221238268
64.0080010001       0.129791352199
64.5080635079       0.110963931898
65.0081260158       0.0944976547334
65.5081885236       0.0801610387503
66.0082510314       0.0677343169026
66.5083135392       0.0570108199675
67.008376047       0.0477979127756
67.5084385548       0.0399175327629
68.0085010626       0.0332063821389
68.5085635704       0.0275158254335
69.0086260783       0.0227115430999
69.5086885861       0.0186729894993
70.0087510939       0.0152927002693
70.5088136017       0.0124754900417
71.0088761095       0.0101375769863
71.5089386173       0.00820566593286
72.0090011251       0.00661601705771
72.509063633       0.00531352247425
73.0091261408       0.00425080865713
73.5091886486       0.00338737856023
74.0092511564       0.00268880361575
74.5093136642       0.00212597256617
75.009376172       0.0016744012979
75.5094386798       0.00131360551007
76.0095011876       0.00102653614706
76.5095636955       0.000799076018137
77.0096262033       0.000619594885945
77.5096887111       0.000478559485036
78.0097512189       0.000368194388487
78.5098137267       0.000282189331367
79.0098762345       0.000215448482176
79.5099387423       0.00016387718845
80.0100012502       0.000124201875345
80.510063758       9.38190151508e-05
81.0101262658       7.06693851393e-05
81.5101887736       5.3134168859e-05
82.0102512814       3.99498146201e-05
82.5103137892       3.01389308426e-05
83.010376297       2.29548614341e-05
83.5104388049       1.78379388051e-05
84.0105013127       1.4381753767e-05
84.5105638205       1.23081089991e-05
85.0106263283       1.14496366024e-05
85.5106888361       1.17393626605e-05
86.0107513439       1.32067961274e-05
86.5108138517       1.59804101093e-05
87.0108763595       2.02966756671e-05
87.5109388674       2.65161069677e-05
88.0110013752       3.51470872915e-05
88.511063883       4.68785732037e-05
89.0111263908       6.26231236514e-05
89.5111888986       8.35720755041e-05
90.0112514064       0.000111265089435
90.5113139142       0.000147676720598
91.0113764221       0.000195323125607
91.5114389299       0.000257392496338
92.0115014377       0.000337903304151
92.5115639455       0.000441894933316
93.0116264533       0.000575655763142
93.5116889611       0.000746994202712
94.0117514689       0.000965558562733
94.5118139767       0.00124321193208
95.0118764846       0.0015944683723
95.5119389924       0.0020369967054
96.0120015002       0.00259219789725
96.512064008       0.00328586147331
97.0121265158       0.00414890548628
97.5121890236       0.00521820322377
98.0122515314       0.00653749803843
98.5123140393       0.00815840534628
99.0123765471       0.0101414979241
99.5124390549       0.0125574671065
100.012501563       0.0154883483224
100.512564071       0.0190287946216
101.012626578       0.0232873764601
101.512689086       0.0283878801084
102.012751594       0.0344705707166
102.512814102       0.0416933794777
103.01287661       0.0502329676575
103.512939117       0.0602856137548
104.013001625       0.0720678640037
104.513064133       0.0858168811596
105.013126641       0.101790422389
105.513189149       0.120266374494
106.013251656       0.141541774049
106.513314164       0.165931241723
107.013376672       0.193764764443
107.51343918       0.225384766494
108.013501688       0.261142421399
108.513564196       0.301393170584
109.013626703       0.346491432612
109.513689211       0.39678450785
110.013751719       0.45260570782
110.513814227       0.514266765537
111.013876735       0.582049612416
111.513939242       0.656197637949
112.01400175       0.736906579473
112.514064258       0.824315219716
113.014126766       0.9184960984
113.514189274       1.01944646948
114.014251781       1.12707975651
114.514314289       1.24121777347
115.014376797       1.36158398652
115.514439305       1.48779809172
116.014501813       1.61937217459
116.514564321       1.75570869856
117.014626828       1.89610054062
117.514689336       2.0397332538
118.014751844       2.18568968883
118.514814352       2.33295705093
119.01487686       2.48043640497
119.514939367       2.62695457415
120.015001875       2.77127830611
120.515064383       2.9121305085
121.015126891       3.04820828594
121.515189399       3.17820244466
122.015251906       3.30081807236
122.515314414       3.41479575212
123.015376922       3.51893293144
123.51543943       3.61210494405
124.015501938       3.6932851735
124.515564446       3.76156385436
125.015626953       3.81616503053
125.515689461       3.8564612289
126.015751969       3.88198546062
126.515814477       3.89244022895
127.015876985       3.88770330089
127.515939492       3.86783008585
128.016002       3.83305255687
128.516064508       3.78377474358
129.016127016       3.72056491938
129.516189524       3.64414469408
130.016252032       3.55537530478
130.516314539       3.45524146884
131.016377047       3.34483322227
131.516439555       3.22532621109
132.016502063       3.09796093282
132.516564571       2.96402143844
133.016627078       2.82481400228
133.516689586       2.68164624921
134.016752094       2.53580719602
134.516814602       2.38854861912
135.01687711       2.24106810524
135.516939617       2.09449407869
136.017002125       1.94987302995
136.517064633       1.8081590986
137.017127141       1.67020609232
137.517189649       1.53676195368
138.017252157       1.40846562167
138.517314664       1.28584617609
139.017377172       1.16932410186
139.51743968       1.0592144684
140.017502188       0.955731786751
140.517564696       0.858996284511
141.017627203       0.769041325894
141.517689711       0.685821700723
142.017752219       0.609222511046
142.517814727       0.539068396638
143.017877235       0.475132859391
143.517939742       0.41714747047
144.01800225       0.36481077158
144.518064758       0.317796711636
145.018127266       0.275762491077
145.518189774       0.238355717081
146.018252282       0.205220802848
146.518314789       0.176004572149
147.018377297       0.150361055874
147.518439805       0.127955489729
148.018502313       0.108467541387
148.518564821       0.0915938109796
149.018627328       0.0770496609861
149.518689836       0.0645704403115
150.018752344       0.0539121729727
150.518814852       0.0448517845962
151.01887736       0.0371869402255
151.518939867       0.0307355651401
152.019002375       0.0253351168844
152.519064883       0.0208416718967
153.019127391       0.017128884362
153.519189899       0.0140868685377
154.019252407       0.0116210490953
154.519314914       0.00965101723798
155.019377422       0.00810942368609
155.51943993       0.00694093322372
156.019502438       0.00610125947524
156.519564946       0.0055562930003
157.019627453       0.00528133069222
157.519689961       0.00526040984529
158.019752469       0.00548574610599
158.519814977       0.00595727081387
159.019877485       0.00668225993381
159.519939992       0.00767504384367
160.0200025       0.00895678463783
160.520065008       0.0105553053103
161.020127516       0.0125049531776
161.520190024       0.0148464781909
162.020252532       0.0176269053861
162.520315039       0.0208993796565
163.020377547       0.0247229603568
163.520440055       0.0291623430128
164.020502563       0.0342874856901
164.520565071       0.040173118433
165.020627578       0.0468981157047
165.520690086       0.0545447139951
166.020752594       0.0631975597821
166.520815102       0.0729425768524
167.02087761       0.0838656466382
167.520940118       0.0960511006703
168.021002625       0.109580030433
168.521065133       0.124528426734
169.021127641       0.140965168028
169.521190149       0.15894988478
170.021252657       0.178530734674
170.521315164       0.199742131046
171.021377672       0.222602474001
171.52144018       0.247111939978
172.021502688       0.273250390752
172.521565196       0.300975466625
173.021627703       0.330220930644
173.521690211       0.360895330734
174.021752719       0.392881044558
174.521815227       0.426033767411
175.021877735       0.460182496625
175.521940243       0.495130056695
176.02200275       0.530654197838
176.522065258       0.566509287138
177.022127766       0.602428596221
177.522190274       0.638127172835
178.022252782       0.673305266434
178.522315289       0.707652260322
179.022377797       0.740851045844
179.522440305       0.772582758016
180.022502813       0.802531777664
180.522565321       0.830390893065
181.022627828       0.855866504836
181.522690336       0.878683751918
182.022752844       0.898591434187
182.522815352       0.915366608804
183.02287786       0.92881874289
183.522940368       0.938793314481
184.023002875       0.945174766614
184.523065383       0.947888735619
185.023127891       0.946903493508
185.523190399       0.942230565382
186.023252907       0.933924505016
186.523315414       0.922081834772
187.023377922       0.906839178612
187.52344043       0.888370638715
188.023502938       0.866884486124
188.523565446       0.842619253353
189.023627953       0.815839331398
189.523690461       0.786830184654
190.023752969       0.75589330455
190.523815477       0.723341026121
191.023877985       0.689491331211
191.523940493       0.654662757776
192.024003       0.619169526966
192.524065508       0.583316988915
193.024128016       0.547397474766
193.524190524       0.51168662715
194.024253032       0.476440264617
194.524315539       0.441891818141
195.024378047       0.408250360304
195.524440555       0.375699230834
196.024503063       0.344395246238
196.524565571       0.314468466888
197.024628079       0.286022482406
197.524690586       0.259135165876
198.024753094       0.233859839374
198.524815602       0.210226787734
199.02487811       0.188245054199
199.524940618       0.167904450695
200.025003125       0.149177716544
200.525065633       0.132022762414
201.025128141       0.116384940811
201.525190649       0.102199290155
202.025253157       0.0893927061704
202.525315664       0.0778860015408
203.025378172       0.0675958223481
203.52544068       0.0584363973287
204.025503188       0.0503211032911
204.525565696       0.0431638368737
205.025628204       0.0368801890543
205.525690711       0.0313884243128
206.025753219       0.0266102710279
206.525815727       0.0224715335241
207.025878235       0.0189025391605
207.525940743       0.0158384360217
208.02600325       0.0132193581689
208.526065758       0.0109904761231
209.026128266       0.00910195037253
209.526190774       0.0075088053164
210.026253282       0.00617074028087
210.526315789       0.00505189317988
211.026378297       0.00412057113098
211.526440805       0.00334896097673
212.026503313       0.00271283128675
212.526565821       0.00219123610205
213.026628329       0.00176622950087
213.526690836       0.00142259907396
214.026753344       0.00114762565038
214.526815852       0.000930876160027
215.02687836       0.000764036398201
215.526940868       0.000640790710342
216.027003375       0.000556756278316
216.527065883       0.000509480799808
217.027128391       0.000498513944628
217.527190899       0.000525565081369
218.027253407       0.000594762428658
218.527315914       0.000713032028455
219.027378422       0.000890618790632
219.52744093       0.00114177633616
220.027503438       0.00148565747523
220.527565946       0.00194744288261
221.027628454       0.00255975183592
221.527690961       0.00336438569016
222.027753469       0.00441446195905
222.527815977       0.00577700429283
223.027878485       0.00753606105555
223.527940993       0.00979643231139
224.0280035       0.0126880914507
224.528066008       0.0163713929525
225.028128516       0.0210431613335
225.528191024       0.0269437575159
226.028253532       0.0343652169172
226.52831604       0.0436605476939
227.028378547       0.0552542668691
227.528441055       0.0696542356026
228.028503563       0.0874648316888
228.528566071       0.109401466581
229.028628579       0.136306415026
229.528691086       0.169165877091
230.028753594       0.20912813453
230.528816102       0.257522595949
231.02887861       0.315879448292
231.528941118       0.385949546599
232.029003625       0.469724080903
232.529066133       0.569453460594
233.029128641       0.687664754984
233.529191149       0.82717692756
234.029253657       0.991113004379
234.529316165       1.182908229
235.029378672       1.40631318238
235.52944118       1.66539079227
236.029503688       1.96450612848
236.529566196       2.30830788462
237.029628704       2.70170048901
237.529691211       3.14980587313
238.029753719       3.6579140601
238.529816227       4.23142192104
239.029878735       4.87575968618
239.529941243       5.59630509046
240.03000375       6.39828537641
240.530066258       7.28666776748
241.030128766       8.26603945347
241.530191274       9.34047858678
242.030253782       10.5134182614
242.53031629       11.7875059185
243.030378797       13.1644610795
243.530441305       14.6449347234
244.030503813       16.2283739896
244.530566321       17.9128961705
245.030628829       19.695176144
245.530691336       21.5703514717
246.030753844       23.5319493272
246.530816352       25.5718392216
247.03087886       27.6802151419
247.530941368       29.845610223
248.031003875       32.0549464217
248.531066383       34.2936208875
249.031128891       36.5456298186
249.531191399       38.7937295986
250.031253907       41.0196339481
250.531316415       43.204244727
251.031378922       45.327912935
251.53144143       47.3707254071
252.031503938       49.3128117398
252.531566446       51.13466514
253.031628954       52.8174702079
253.531691461       54.3434301732
254.031753969       55.696085829
254.531816477       56.8606183651
255.031878985       57.8241285068
255.531941493       58.5758848089
256.032004001       59.1075346341
256.532066508       59.4132722413
257.032129016       59.4899594861
257.532191524       59.3371958743
258.032254032       58.9573360461
258.53231654       58.3554541784
259.032379047       57.5392562102
259.532441555       56.5189421833
260.032504063       55.3070222892
260.532566571       53.9180913919
261.032629079       52.3685678019
261.532691586       50.6764028918
262.032754094       48.860768733
262.532816602       46.9417312948
263.03287911       44.9399168607
263.532941618       42.8761792095
264.033004126       40.7712747674
264.533066633       38.6455524107
265.033129141       36.5186638924
265.533191649       34.4093000299
266.033254157       32.3349568509
266.533316665       30.3117348974
267.033379172       28.354173862
267.53344168       26.475123725
