#  x                 y             frequency           intensity
0.0       9.01152935031e-13       60.86       3.32652
0.500062507813       1.44700265299e-12       106.21       1.60808
1.00012501563       2.31442582263e-12       199.36       4.67186
1.50018752344       3.68740056601e-12       241.64       21.01618
2.00025003125       5.85194832946e-12       271.31       127.91534
2.50031253907       9.25089519088e-12       298.72       7.16103
3.00037504688       1.45670010443e-11       330.47       34.97466
3.50043755469       2.28486031764e-11       414.67       14.43442
4.00050006251       3.56986893693e-11       505.46       20.62286
4.50056257032       5.55581788601e-11       615.90       87.91803
5.00062507813       8.61284921862e-11       642.12       17.44344
5.50068758595       1.32999129965e-10       774.24       44.52167
6.00075009376       2.04575616513e-10       801.97       11.05471
6.50081260158       3.13445507986e-10       842.38       161.54109
7.00087510939       4.78380364026e-10       1003.07       0.84704
7.5009376172       7.27256736209e-10       1020.01       78.14137
8.00100012502       1.10129907183e-09       1076.79       40.82975
8.50106263283       1.66121524048e-09       1124.18       17.06977
9.00112514064       2.49602915241e-09       1148.91       238.10282
9.50118764846       3.73573888497e-09       1183.95       24.17521
10.0012501563       5.56937531422e-09       1234.66       37.53920
10.5013126641       8.27064863745e-09       1323.87       11.04288
11.0013751719       1.2234205456e-08       1340.16       0.61041
11.5014376797       1.80266522582e-08       1370.31       16.75658
12.0015001875       2.64580300627e-08       1403.23       38.41924
12.5015626953       3.86814765e-08       1452.18       37.76279
13.0016252032       5.63315489917e-08       1502.14       2.58922
13.501687711       8.17153145845e-08       1641.77       64.96982
14.0017502188       1.18075103085e-07       1815.77       258.03379
14.5018127266       1.69948103617e-07       2981.57       63.72188
15.0018752344       2.4365617669e-07       3037.61       16.65878
15.5019377422       3.47969869774e-07       3088.61       22.26272
16.00200025       4.95004297056e-07       3486.15       4.43685
16.5020627578       7.0142204362e-07       3568.91       7.54551
17.0021252657       9.90040508816e-07       3713.56       60.86819
17.5021877735       1.39196922001e-06       3790.11       27.27703
18.0022502813       1.94943793226e-06
18.5023127891       2.7195203041e-06
19.0023752969       3.77901235607e-06
19.5024378047       5.23079176305e-06
20.0025003125       7.21206551826e-06
20.5025628204       9.90501206026e-06
21.0026253282       1.3550442164e-05
21.502687836       1.84652434599e-05
22.0027503438       2.50645390597e-05
22.5028128516       3.38896840101e-05
23.0028753594       4.56434464381e-05
23.5029378672       6.12339750305e-05
24.003000375       8.18294418481e-05
24.5030628829       0.000108925569189
25.0031253907       0.000144428599542
25.5031878985       0.000190756644859
26.0032504063       0.000250962749214
26.5033129141       0.000328883408169
27.0033754219       0.00042931669597
27.5034379297       0.000558234541317
28.0035004376       0.000723034042166
28.5035629454       0.000932832993673
29.0036254532       0.00119881498899
29.503687961       0.00153462950352
30.0037504688       0.00195685224692
30.5038129766       0.00248551071784
31.0038754844       0.0031446792726
31.5039379922       0.00396314706994
32.0040005001       0.00497516092567
32.5040630079       0.00622124335381
33.0041255157       0.00774908383912
33.5041880235       0.0096144986434
34.0042505313       0.0118824511713
34.5043130391       0.0146281211037
35.0043755469       0.0179380061645
35.5044380548       0.0219110355612
36.0045005626       0.0266596689054
36.5045630704       0.0323109488827
37.0046255782       0.0390074702518
37.504688086       0.0469082220902
38.0047505938       0.056189254801
38.5048131016       0.0670441185087
39.0048756095       0.0796840154035
39.5049381173       0.0943376056588
40.0050006251       0.111250405097
40.5050631329       0.130683713146
41.0051256407       0.152913012142
41.5051881485       0.178225784036
42.0052506563       0.20691869822
42.5053131641       0.239294134828
43.005375672       0.275656021404
43.5054381798       0.316304977461
44.0055006876       0.36153278082
44.5055631954       0.41161619166
45.0056257032       0.466810194277
45.505688211       0.527340742259
46.0057507188       0.593397119227
46.5058132267       0.665124053722
47.0058757345       0.742613752169
47.5059382423       0.825898037055
48.0060007501       0.914940797408
48.5060632579       1.00963097418
49.0061257657       1.10977631313
49.5061882735       1.21509812142
50.0062507813       1.32522726003
50.5063132892       1.43970159272
51.006375797       1.55796509144
51.5064383048       1.67936877024
52.0065008126       1.8031735822
52.5065633204       1.92855537028
53.0066258282       2.05461191147
53.506688336       2.18037203816
54.0067508439       2.30480676032
54.5068133517       2.42684225129
55.0068758595       2.54537449844
55.5069383673       2.65928536204
56.0070008751       2.76745973202
56.5070633829       2.86880342578
57.0071258907       2.96226143338
57.5071883985       3.04683608939
58.0072509064       3.12160473699
58.5073134142       3.18573644876
59.007375922       3.23850738136
59.5074384298       3.27931436793
60.0075009376       3.30768639142
60.5075634454       3.32329363396
61.0076259532       3.32595385903
61.5076884611       3.31563595397
62.0077509689       3.2924605366
62.5078134767       3.25669760937
63.0078759845       3.20876132512
63.5079384923       3.14920200634
64.0080010001       3.07869563324
64.5080635079       2.99803108153
65.0081260158       2.90809544701
65.5081885236       2.80985783877
66.0082510314       2.70435205485
66.5083135392       2.59265857261
67.008376047       2.47588629074
67.5084385548       2.35515445138
68.0085010626       2.23157514887
68.5085635704       2.10623679918
69.0086260783       1.980188901
69.5086885861       1.85442836893
70.0087510939       1.72988766271
70.5088136017       1.60742487645
71.0088761095       1.48781589042
71.5089386173       1.37174862777
72.0090011251       1.25981940052
72.509063633       1.15253127666
73.0091261408       1.05029435292
73.5091886486       0.953427777996
74.0092511564       0.862163339334
74.5093136642       0.776650402805
75.009376172       0.696961979441
75.5094386798       0.623101686299
76.0095011876       0.555011368833
76.5095636955       0.49257915933
77.0096262033       0.435647758796
77.5096887111       0.384022747272
78.0097512189       0.337480748646
78.5098137267       0.295777299494
79.0098762345       0.258654296144
79.5099387423       0.22584691911
80.0100012502       0.197089958163
80.510063758       0.172123484002
81.0101262658       0.150697832965
81.5101887736       0.132577889208
82.0102512814       0.117546663789
82.5103137892       0.105408182175
83.010376297       0.0959897008154
83.5104388049       0.0891432796987
84.0105013127       0.0847467416596
84.5105638205       0.0827040508508
85.0106263283       0.0829451428153
85.5106888361       0.085425237388
86.0107513439       0.0901236637775
86.5108138517       0.0970422251083
87.0108763595       0.106203127916
87.5109388674       0.117646501018
88.0110013752       0.131427528149
88.511063883       0.147613220096
89.0111263908       0.166278854879
89.5111888986       0.187504118937
90.0112514064       0.211368988284
90.5113139142       0.237949395943
91.0113764221       0.267312740512
91.5114389299       0.29951330007
92.0115014377       0.33458762531
92.5115639455       0.372549995359
93.0116264533       0.413388028569
93.5116889611       0.457058548126
94.0117514689       0.503483807918
94.5118139767       0.552548187307
95.0118764846       0.60409546357
95.5119389924       0.657926767592
96.0120015002       0.713799321349
96.512064008       0.771426044881
97.0121265158       0.830476105577
97.5121890236       0.890576464007
98.0122515314       0.951314448412
98.5123140393       1.01224136494
99.0123765471       1.07287712334
99.5124390549       1.13271582906
100.012501563       1.19123226331
100.512564071       1.24788914377
101.012626578       1.30214503151
101.512689086       1.353462725
102.012751594       1.4013179611
102.512814102       1.4452082269
103.01287661       1.48466147539
103.512939117       1.51924453309
104.013001625       1.54857098972
104.513064133       1.57230836822
105.013126641       1.59018438849
105.513189149       1.6019921591
106.013251656       1.60759415828
106.513314164       1.60692489635
107.013376672       1.59999218754
107.51343918       1.58687699622
108.013501688       1.56773186154
108.513564196       1.54277794341
109.013626703       1.51230076947
109.513689211       1.47664479745
110.013751719       1.43620693756
110.513814227       1.39142920516
111.013876735       1.34279069357
111.513939242       1.29079907049
112.01400175       1.23598180815
112.514064258       1.17887735767
113.014126766       1.12002647184
113.514189274       1.05996386811
114.014251781       0.999210406421
114.514314289       0.938265933993
115.014376797       0.877602924123
115.514439305       0.81766100761
116.014501813       0.758842466284
116.514564321       0.701508728296
117.014626828       0.64597787587
117.514689336       0.592523148891
118.014751844       0.541372402825
118.514814352       0.49270845772
119.01487686       0.446670256881
119.514939367       0.403354739585
120.015001875       0.362819322049
120.515064383       0.325084874743
121.015126891       0.290139081934
121.515189399       0.257940070676
122.015251906       0.228420201061
122.515314414       0.201489916753
123.015376922       0.177041564346
123.51543943       0.154953101116
124.015501938       0.135091622959
124.515564446       0.117316657024
125.015626953       0.101483176384
125.515689461       0.0874443065128
126.015751969       0.0750537051433
126.515814477       0.0641676077545
127.015876985       0.0546465405068
127.515939492       0.046356710566
128.016002       0.0391710904803
128.516064508       0.0329702185359
129.016127016       0.0276427408673
129.516189524       0.0230857236342
130.016252032       0.0192047649007
130.516314539       0.0159139361314
131.016377047       0.0131355825914
131.516439555       0.0108000105849
132.016502063       0.00884508754644
132.516564571       0.00721577866773
133.016627078       0.00586364115164
133.516689586       0.00474629445338
134.016752094       0.00382688211602
134.516814602       0.00307353812037
135.01687711       0.00245886812171
135.516939617       0.00195945359228
136.017002125       0.0015553847648
136.517064633       0.0012298264019
137.017127141       0.000968618806202
137.517189649       0.000759915135302
138.017252157       0.000593854983427
138.517314664       0.000462273320447
139.017377172       0.000358443217577
139.51743968       0.000276850313256
140.017502188       0.000212996657012
140.517564696       0.000163231388213
141.017627203       0.00012460563603
141.517689711       9.47490440516e-05
142.017752219       7.17654071822e-05
142.517814727       5.41450416089e-05
143.017877235       4.06916752012e-05
143.517939742       3.04618326501e-05
144.01800225       2.27148863664e-05
144.518064758       1.68721422696e-05
145.018127266       1.24835227426e-05
145.518189774       9.20059258846e-06
146.018252282       6.75484466923e-06
146.518314789       4.94031813983e-06
147.018377297       3.59976288714e-06
147.518439805       2.61368881834e-06
148.018502313       1.89174844093e-06
148.518564821       1.36599660139e-06
149.018627328       9.85653437992e-07
149.518689836       7.13066870322e-07
150.018752344       5.20630704122e-07
150.518814852       3.88465118014e-07
151.01887736       3.02709357885e-07
151.518939867       2.5431330693e-07
152.019002375       2.38246601122e-07
152.519064883       2.53072467144e-07
153.019127391       3.00859802029e-07
153.519189899       3.87432526271e-07
154.019252407       5.22981295507e-07
154.519314914       7.23090689088e-07
155.019377422       1.01026655247e-06
155.51943993       1.41608494522e-06
156.019502438       1.98412801349e-06
156.519564946       2.77392516374e-06
157.019627453       3.86618251773e-06
157.519689961       5.36966241311e-06
158.019752469       7.43017061162e-06
158.519814977       1.0242225111e-05
159.019877485       1.40641205227e-05
159.519939992       1.9237269583e-05
160.0200025       2.6210902346e-05
160.520065008       3.55734377916e-05
161.020127516       4.80921156044e-05
161.520190024       6.47627909289e-05
162.020252532       8.6872154417e-05
162.520315039       0.000116075045125
163.020377547       0.00015448997444
163.520440055       0.000204816472679
164.020502563       0.000270478400938
164.520565071       0.000355797930329
165.020627578       0.000466205465769
165.520690086       0.000608491363813
166.020752594       0.000791105839757
166.520815102       0.00102451394794
167.02087761       0.00132161291342
167.520940118       0.00169821934846
168.021002625       0.0021736339508
168.521065133       0.00277129109397
169.021127641       0.00351950021685
169.521190149       0.00445228502928
170.021252657       0.00561032520019
170.521315164       0.00704200330987
171.021377672       0.00880455735741
171.52144018       0.0109653359568
172.021502688       0.013603149477
172.521565196       0.0168097057548
173.021627703       0.0206911136187
173.521690211       0.0253694313424
174.021752719       0.0309842303455
174.521815227       0.03769413709
175.021877735       0.0456783083363
175.521940243       0.0551377869257
176.02200275       0.0662966773126
176.522065258       0.0794030725009
177.022127766       0.0947296572068
177.522190274       0.112573906403
178.022252782       0.133257794351
178.522315289       0.15712692725
179.022377797       0.184549013277
179.522440305       0.215911587412
180.022502813       0.251618915574
180.522565321       0.292088013568
181.022627828       0.337743731295
181.522690336       0.389012871994
182.022752844       0.446317339631
182.522815352       0.510066335013
183.02287786       0.580647652177
183.522940368       0.658418160553
184.023002875       0.743693594533
184.523065383       0.836737809262
185.023127891       0.93775169853
185.523190399       1.04686200619
186.023252907       1.16411029498
186.523315414       1.28944236442
187.023377922       1.42269843113
187.52344043       1.56360439846
188.023502938       1.71176454721
188.523565446       1.86665597314
189.023627953       2.02762508016
189.523690461       2.19388640931
190.023752969       2.3645240429
190.523815477       2.53849577144
191.023877985       2.71464014801
191.523940493       2.89168648347
192.024003       3.06826775652
192.524065508       3.24293632881
193.024128016       3.41418226912
193.524190524       3.58045400489
194.024253032       3.74018093787
194.524315539       3.89179758561
195.024378047       4.03376874611
195.524440555       4.16461513082
196.024503063       4.28293887488
196.524565571       4.38744831418
197.024628079       4.47698141822
197.524690586       4.55052728666
198.024753094       4.60724515527
198.524815602       4.64648041346
199.02487811       4.66777720894
199.524940618       4.67088730278
200.025003125       4.65577493786
200.525065633       4.62261759166
201.025128141       4.5718025969
201.525190649       4.50391972725
202.025253157       4.41974995539
202.525315664       4.32025069429
203.025378172       4.20653792552
203.52544068       4.07986569794
204.025503188       3.94160354393
204.525565696       3.79321240593
205.025628204       3.63621969365
205.525690711       3.47219409985
206.025753219       3.3027207921
206.525815727       3.12937756934
207.025878235       2.95371252788
207.525940743       2.77722372316
208.02600325       2.60134124465
208.526065758       2.42741204368
209.026128266       2.25668777153
209.526190774       2.0903158002
210.026253282       1.92933351408
210.526315789       1.77466587934
211.026378297       1.62712622233
211.526440805       1.48742007914
212.026503313       1.35615191787
212.526565821       1.23383448356
213.026628329       1.12090047324
213.526690836       1.01771621507
214.026753344       0.924597000305
214.526815852       0.84182369911
215.02687836       0.76966027979
215.526940868       0.708371844041
216.027003375       0.658242788033
216.527065883       0.619594698212
217.027128391       0.592803591346
217.527190899       0.57831610945
218.027253407       0.576664281515
218.527315914       0.588478465412
219.027378422       0.614498085337
219.52744093       0.655579783702
220.027503438       0.712702612525
220.527565946       0.786969899981
221.027628454       0.879607444593
221.527690961       0.99195771468
222.027753469       1.1254697663
222.527815977       1.28168464094
223.027878485       1.46221606656
223.527940993       1.6687263631
224.0280035       1.90289754814
224.528066008       2.16639774821
225.028128516       2.46084314767
225.528191024       2.78775584641
226.028253532       3.14851814856
226.52831604       3.54432396231
227.028378547       3.97612815124
227.528441055       4.44459483532
228.028503563       4.95004578767
228.528566071       5.49241020495
229.028628579       6.07117723826
229.528691086       6.68535274977
230.028753594       7.33342180218
230.528816102       8.01331838736
231.02887861       8.72240385273
231.528941118       9.4574553858
232.029003625       10.214665767
232.529066133       10.9896554005
233.029128641       11.7774973816
233.529191149       12.57275607
234.029253657       13.3695393035
234.529316165       14.1615640382
235.029378672       14.9422348229
235.52944118       15.7047341478
236.029503688       16.4421233365
236.529566196       17.1474523187
237.029628704       17.8138763122
237.529691211       18.4347771971
238.029753719       19.0038871762
238.529816227       19.5154121954
239.029878735       19.9641525654
239.529941243       20.3456182616
240.03000375       20.6561365111
240.530066258       20.8929494706
241.030128766       21.0543000793
241.530191274       21.1395044997
242.030253782       21.149009943
242.53031629       21.0844370864
243.030378797       20.9486067159
243.530441305       20.7455506456
244.030503813       20.4805073604
244.530566321       20.159903181
245.030628829       19.7913200384
245.530691336       19.3834511669
246.030753844       18.9460461526
246.530816352       18.4898468189
247.03087886       18.0265153754
247.530941368       17.5685561102
248.031003875       17.1292316807
248.531066383       16.722474752
249.031128891       16.3627953791
249.531191399       16.0651841363
250.031253907       15.8450105959
250.531316415       15.7179163726
251.031378922       15.6997016031
251.53144143       15.806203458
252.031503938       16.053165101
252.531566446       16.4560934463
253.031628954       17.0301041394
253.531691461       17.7897524073
254.031753969       18.7488488014
254.531816477       19.9202593925
255.031878985       21.3156906581
255.531941493       22.9454601174
256.032004001       24.8182546928
256.532066508       26.940879776
257.032129016       29.318003013
257.532191524       31.9518978567
258.032254032       34.8421929088
258.53231654       37.9856339479
259.032379047       41.3758662547
259.532441555       45.0032453537
260.032504063       48.8546845571
260.532566571       52.9135476647
261.032629079       57.1595948361
261.532691586       61.5689889776
262.032754094       66.1143689738
262.532816602       70.7649947572
263.03287911       75.4869675681
263.532941618       80.2435268508
264.033004126       84.9954231168
264.533066633       89.7013638431
265.033129141       94.31852714
265.533191649       98.8031356046
266.033254157       103.111080557
266.533316665       107.198584826
267.033379172       111.022890502
267.53344168       114.542956662
268.033504188       117.720151112
