#  x                 y             frequency           intensity
0.0       7.30962474199e-08       47.06       2.38790
0.500062507813       1.05375022512e-07       114.88       4.32896
1.00012501563       1.51315491162e-07       222.21       10.97138
1.50018752344       2.164373542e-07       237.77       4.06169
2.00025003125       3.08378544126e-07       283.87       1.39345
2.50031253907       4.37662366386e-07       360.90       0.36564
3.00037504688       6.18724577266e-07       492.34       23.24852
3.50043755469       8.71281803511e-07       533.16       12.13303
4.00050006251       1.22214583873e-06       558.32       25.49913
4.50056257032       1.70761725959e-06       576.01       173.20064
5.00062507813       2.37662768085e-06       660.97       68.70935
5.50068758595       3.29484417011e-06       753.01       24.04979
6.00075009376       4.5500033954e-06       808.21       86.09052
6.50081260158       6.25880866353e-06       887.62       48.98605
7.00087510939       8.57580193993e-06       904.72       27.89168
7.5009376172       1.17047171333e-05       997.57       3.96916
8.00100012502       1.59129323274e-05       1072.91       76.64130
8.50106263283       2.15497691464e-05       1119.34       43.20130
9.00112514064       2.90695387844e-05       1149.28       237.51944
9.50118764846       3.90604078389e-05       1199.78       36.35687
10.0012501563       5.2280353896e-05       1243.57       12.72825
10.5013126641       6.97017010284e-05       1301.48       13.18922
11.0013751719       9.25659682138e-05       1337.62       28.55467
11.5014376797       0.000122451027092       1366.42       10.85321
12.0015001875       0.00016135284575       1415.60       34.28234
12.5015626953       0.000211784386639       1431.29       67.59048
13.0016252032       0.000276894521189       1508.02       6.27602
13.501687711       0.000360610110279       1649.00       49.28318
14.0017502188       0.000467804664399       1818.31       268.98591
14.5018127266       0.00060449722263       2969.19       47.64034
15.0018752344       0.000778085254141       2983.60       60.22608
15.5019377422       0.000997615464917       3111.92       12.39620
16.00200025       0.00127409635693       3516.95       3.71292
16.5020627578       0.00162085620498       3601.60       14.09584
17.0021252657       0.0020539497526       3691.11       56.91080
17.5021877735       0.00259261634609       3724.33       71.41758
18.0022502813       0.00325979138622
18.5023127891       0.0040826718445
19.0023752969       0.00509333512965
19.5024378047       0.00632940877183
20.0025003125       0.00783478619623
20.5025628204       0.00966038127321
21.0026253282       0.0118649113648
21.502687836       0.0145156952585
22.0027503438       0.0176894487318
22.5028128516       0.0214730565942
23.0028753594       0.025964295998
23.5029378672       0.0312724817189
24.003000375       0.0375190001336
24.5030628829       0.0448376949381
25.0031253907       0.0533750644677
25.5031878985       0.0632902280158
26.0032504063       0.0747546170465
26.5033129141       0.0879513469047
27.0033754219       0.103074225785
27.5034379297       0.120326360563
28.0035004376       0.139918323798
28.5035629454       0.16206585299
29.0036254532       0.186987062033
29.503687961       0.21489915587
30.0037504688       0.246014652469
30.5038129766       0.280537131329
31.0038754844       0.318656544458
31.5039379922       0.360544143791
32.0040005001       0.406347097871
32.5040630079       0.456182889655
33.0041255157       0.510133605944
33.5041880235       0.568240246248
34.0042505313       0.630497194333
34.5043130391       0.696847008166
35.0043755469       0.76717569286
35.5044380548       0.841308625721
36.0045005626       0.919007301906
36.5045630704       0.999967063094
37.0046255782       1.08381595948
37.504688086       1.17011487734
38.0047505938       1.25835904034
38.5048131016       1.34798096297
39.0048756095       1.43835489999
39.5049381173       1.52880279657
40.0050006251       1.61860170215
40.5050631329       1.70699256712
41.0051256407       1.79319029731
41.5051881485       1.87639489854
42.0052506563       1.95580350351
42.5053131641       2.03062303754
43.005375672       2.10008325049
43.5054381798       2.16344981956
44.0055006876       2.22003721408
44.5055631954       2.26922100872
45.0056257032       2.31044933671
45.505688211       2.34325318993
46.0057507188       2.36725529706
46.5058132267       2.38217734506
47.0058757345       2.38784535062
47.5059382423       2.38419303671
48.0060007501       2.37126312254
48.5060632579       2.34920649185
49.0061257657       2.31827926223
49.5061882735       2.27883783495
50.0062507813       2.23133205917
50.5063132892       2.17629669374
51.006375797       2.11434139327
51.5064383048       2.04613948025
52.0065008126       1.97241579229
52.5065633204       1.89393391015
53.0066258282       1.81148307993
53.506688336       1.7258651402
54.0067508439       1.63788175295
54.5068133517       1.54832221666
55.0068758595       1.45795211183
55.5069383673       1.36750299484
56.0070008751       1.27766331693
56.5070633829       1.1890707026
57.0071258907       1.10230567799
57.5071883985       1.01788689559
58.0072509064       0.936267859376
58.5073134142       0.857835114715
59.007375922       0.782907831652
59.5074384298       0.711738679429
60.0075009376       0.644515864711
60.5075634454       0.581366186584
61.0076259532       0.52235894804
61.5076884611       0.467510556279
62.0077509689       0.416789642398
62.5078134767       0.370122534509
63.0078759845       0.32739892628
63.5079384923       0.288477594737
64.0080010001       0.253192035921
64.5080635079       0.221355904069
65.0081260158       0.192768158334
65.5081885236       0.167217840123
66.0082510314       0.144488423046
66.5083135392       0.124361695741
67.008376047       0.106621154883
67.5084385548       0.0910549011823
68.0085010626       0.0774580447072
68.5085635704       0.0656346374143
69.0086260783       0.0553991601184
69.5086885861       0.0465775983546
70.0087510939       0.0390081467503
70.5088136017       0.0325415847799
71.0088761095       0.0270413683033
71.5089386173       0.0223834813307
72.0090011251       0.0184560912383
72.509063633       0.0151590484432
73.0091261408       0.0124032685659
73.5091886486       0.0101100316045
74.0092511564       0.0082102288232
74.5093136642       0.0066435841043
75.009376172       0.00535787259507
75.5094386798       0.00430815571968
76.0095011876       0.00345604813537
76.5095636955       0.00276902905918
77.0096262033       0.00221980763261
77.5096887111       0.00178574965442
78.0097512189       0.00144837110427
78.5098137267       0.00119290239681
79.0098762345       0.00100792622449
79.5099387423       0.00088509113608
80.0100012502       0.000818902615379
80.510063758       0.000806593322133
81.0101262658       0.000848074280203
81.5101887736       0.000945969087726
82.0102512814       0.0011057336166
82.5103137892       0.00133586409726
83.010376297       0.00164819687848
83.5104388049       0.00205830343773
84.0105013127       0.00258598431773
84.5105638205       0.00325586550178
85.0106263283       0.00409810023334
85.5106888361       0.00514917835462
86.0107513439       0.00645284380789
86.5108138517       0.00806111893937
87.0108763595       0.0100354316059
87.5109388674       0.0124478377589
88.0110013752       0.0153823281371
88.511063883       0.0189362029267
89.0111263908       0.023221492774
89.5111888986       0.0283663984022
90.0112514064       0.0345167144032
90.5113139142       0.0418371956763
91.0113764221       0.0505128176624
91.5114389299       0.0607498742226
92.0115014377       0.0727768500179
92.5115639455       0.0868449979134
93.0116264533       0.103228546639
93.5116889611       0.122224460104
94.0117514689       0.144151667854
94.5118139767       0.169349686559
95.0118764846       0.198176555675
95.5119389924       0.231006016797
96.0120015002       0.268223876158
96.512064008       0.310223503417
97.0121265158       0.357400437464
97.5121890236       0.410146091452
98.0122515314       0.468840574429
98.5123140393       0.533844675511
99.0123765471       0.605491087815
99.5124390549       0.684074982774
100.012501563       0.769844079863
100.512564071       0.862988391183
101.012626578       0.96362985337
101.512689086       1.07181208963
102.012751594       1.18749057074
102.512814102       1.3105234643
103.01287661       1.44066347461
103.512939117       1.57755098063
104.013001625       1.72070877436
104.513064133       1.86953868724
105.013126641       2.02332036588
105.513189149       2.18121242181
106.013251656       2.34225613195
106.513314164       2.50538180953
107.013376672       2.66941789884
107.51343918       2.8331027745
108.013501688       2.99509914838
108.513564196       3.1540109072
109.013626703       3.30840212486
109.513689211       3.45681791687
110.013751719       3.59780673513
110.513814227       3.72994364018
111.013876735       3.85185403932
111.513939242       3.96223734431
112.01400175       4.05988998329
112.514064258       4.14372719996
113.014126766       4.2128030892
113.514189274       4.26632835232
114.014251781       4.30368530613
114.514314289       4.324439747
115.014376797       4.32834935115
115.514439305       4.31536838404
116.014501813       4.28564859089
116.514564321       4.23953624406
117.014626828       4.17756542765
117.514689336       4.10044774134
118.014751844       4.0090587011
118.514814352       3.90442119996
119.01487686       3.78768646573
119.514939367       3.66011301075
120.015001875       3.52304411098
120.515064383       3.37788437625
121.015126891       3.22607597993
121.515189399       3.06907510506
122.015251906       2.90832913673
122.515314414       2.74525508746
123.015376922       2.58121968707
123.51543943       2.41752150263
124.015501938       2.25537538028
124.515564446       2.09589942299
125.015626953       1.9401046377
125.515689461       1.78888730692
126.015751969       1.64302406399
126.515814477       1.50316958224
127.015876985       1.36985672637
127.515939492       1.2434989624
128.016002       1.12439478033
128.516064508       1.01273385287
129.016127016       0.908604633242
129.516189524       0.812003085808
130.016252032       0.722842243636
130.516314539       0.640962296726
131.016377047       0.566140931771
131.516439555       0.498103668016
132.016502063       0.43653396226
132.516564571       0.381082888057
133.016627078       0.331378228063
133.516689586       0.287032853058
134.016752094       0.247652295188
134.516814602       0.212841455289
135.01687711       0.182210414109
135.516939617       0.155379343998
136.017002125       0.131982540866
136.517064633       0.111671615604
137.017127141       0.0941178996179
137.517189649       0.0790141308078
138.017252157       0.0660754942474
138.517314664       0.0550400965012
139.017377172       0.0456689541384
139.51743968       0.0377455760988
140.017502188       0.0310752165349
140.517564696       0.025483870048
141.017627203       0.0208170752938
141.517689711       0.0169385861479
142.017752219       0.0137289623636
142.517814727       0.0110841242294
143.017877235       0.00891390841847
143.517939742       0.00714065521876
144.01800225       0.00569785080297
144.518064758       0.00452884226884
145.018127266       0.00358563790586
145.518189774       0.0028278005753
146.018252282       0.00222143821961
146.518314789       0.00173829232903
147.018377297       0.00135492264332
147.518439805       0.00105198440266
148.018502313       0.000813593019564
148.518564821       0.000626770055953
149.018627328       0.000480963787375
149.518689836       0.000367637353227
150.018752344       0.000279917464566
150.518814852       0.000212296812565
151.01887736       0.000160383639562
151.518939867       0.000120692356957
152.019002375       9.04695823595e-05
152.519064883       6.75504918171e-05
153.019127391       5.02409170766e-05
153.519189899       3.72211437397e-05
154.019252407       2.74678699787e-05
154.519314914       2.01912573805e-05
155.019377422       1.47844393401e-05
155.51943993       1.07832448772e-05
156.019502438       7.83424571964e-06
156.519564946       5.66954261292e-06
157.019627453       4.08697492454e-06
157.519689961       2.93466842041e-06
158.019752469       2.09903279942e-06
158.519814977       1.49548665454e-06
159.019877485       1.06132651107e-06
159.519939992       7.50271917678e-07
160.0200025       5.28313492474e-07
160.520065008       3.70568358011e-07
161.020127516       2.58910253656e-07
161.520190024       1.80192202512e-07
162.020252532       1.24920043554e-07
162.520315039       8.62672375695e-08
163.020377547       5.93466688905e-08
163.520440055       4.06750001782e-08
164.020502563       2.77805839889e-08
164.520565071       1.89178918891e-08
165.020627578       1.28606255947e-08
165.520690086       8.7527225532e-09
166.020752594       6.00184229974e-09
166.520815102       4.20400595721e-09
167.02087761       3.09116792382e-09
167.520940118       2.49587259105e-09
168.021002625       2.32898799502e-09
168.521065133       2.5679743013e-09
169.021127641       3.25437374043e-09
169.521190149       4.50031949615e-09
170.021252657       6.50496619459e-09
170.521315164       9.58295762087e-09
171.021377672       1.42084922781e-08
171.52144018       2.10803691062e-08
172.021502688       3.12157705419e-08
172.521565196       4.60836893918e-08
173.021627703       6.77931113117e-08
173.521690211       9.9356686588e-08
174.021752719       1.45058125219e-07
174.521815227       2.10961517861e-07
175.021877735       3.056139717e-07
175.521940243       4.41010301728e-07
176.02200275       6.33911221991e-07
176.522065258       9.07636016766e-07
177.022127766       1.29448886371e-06
177.522190274       1.83902706431e-06
178.022252782       2.60244212121e-06
178.522315289       3.66840414155e-06
179.022377797       5.1508203081e-06
179.522440305       7.20408369029e-06
180.022502813       1.00365447407e-05
180.522565321       1.39281304788e-05
181.022627828       1.92532724159e-05
181.522690336       2.6510591273e-05
182.022752844       3.63611326889e-05
182.522815352       4.96773621025e-05
183.02287786       6.76056177612e-05
183.522940368       9.16452971807e-05
184.023002875       0.0001237487226
184.523065383       0.000166446402019
185.023127891       0.000223003279262
185.523190399       0.000297612551102
186.023252907       0.000395634719549
186.523315414       0.0005238907352
187.023377922       0.000691019358093
187.52344043       0.000907910192204
188.023502938       0.00118822520438
188.523565446       0.00154902287158
189.023627953       0.00201150035116
189.523690461       0.00260187016164
190.023752969       0.00335238870307
190.523815477       0.004302554426
191.023877985       0.00550049345009
191.523940493       0.00700454979222
192.024003       0.00888509593327
192.524065508       0.0112265770643
193.024128016       0.0141297988334
193.524190524       0.0177144635922
194.024253032       0.0221219538583
194.524315539       0.0275183538232
195.024378047       0.0340976901408
195.524440555       0.042085361875
196.024503063       0.0517417163627
196.524565571       0.0633657129507
197.024628079       0.077298600262
197.524690586       0.0939275151224
198.024753094       0.113688892939
198.524815602       0.137071560681
199.02487811       0.164619365368
199.524940618       0.196933173843
200.025003125       0.234672064602
200.525065633       0.278553520485
201.025128141       0.329352423277
201.525190649       0.387898648747
202.025253157       0.45507306467
202.525315664       0.531801745735
203.025378172       0.619048239191
203.52544068       0.717803744098
204.025503188       0.829075105868
204.525565696       0.953870576437
205.025628204       1.09318334874
205.525690711       1.24797294156
206.025753219       1.41914458615
206.525815727       1.60752684748
207.025878235       1.81384779865
207.525940743       2.0387101542
208.02600325       2.28256585333
208.526065758       2.54569066454
209.026128266       2.82815945478
209.526190774       3.12982282509
210.026253282       3.45028585727
210.526315789       3.78888973878
211.026378297       4.14469703236
211.526440805       4.51648133084
212.026503313       4.90272198355
212.526565821       5.30160449898
213.026628329       5.71102711792
213.526690836       6.12861391468
214.026753344       6.5517346229
214.526815852       6.97753120151
215.02687836       7.4029509602
215.526940868       7.82478585838
216.027003375       8.23971738403
216.527065883       8.64436621683
217.027128391       9.03534569057
217.527190899       9.40931790188
218.027253407       9.76305117248
218.527315914       10.0934774674
219.027378422       10.3977483085
219.52744093       10.6732877025
220.027503438       10.9178406357
220.527565946       11.1295157612
221.027628454       11.3068210376
221.527690961       11.4486912429
222.027753469       11.5545065073
222.527815977       11.6241012488
223.027878485       11.6577631714
223.527940993       11.656222274
224.0280035       11.6206301108
224.528066008       11.55252984
225.028128516       11.4538178681
225.528191024       11.3266981537
226.028253532       11.1736304471
226.52831604       10.9972739226
227.028378547       10.8004277812
227.528441055       10.5859704797
228.028503563       10.3567992583
228.528566071       10.1157716018
229.028628579       9.86565017935
229.528691086       9.60905266627
230.028753594       9.34840766805
230.528816102       9.08591774468
231.02887861       8.823530286
231.528941118       8.5629167214
232.029003625       8.3054602729
232.529066133       8.05225218756
233.029128641       7.8040961242
233.529191149       7.56152012915
234.029253657       7.3247954236
234.529316165       7.09396104865
235.029378672       6.86885327695
235.52944118       6.64913860644
236.029503688       6.43434910244
236.529566196       6.22391884934
237.029628704       6.01722031075
237.529691211       5.8135994728
238.029753719       5.61240875505
238.529816227       5.41303681182
239.029878735       5.21493450569
239.529941243       5.0176365089
240.03000375       4.8207781695
240.530066258       4.62410746015
241.030128766       4.42749200268
241.530191274       4.23092132405
242.030253782       4.03450464509
242.53031629       3.83846462754
243.030378797       3.64312760499
243.530441305       3.44891089746
244.030503813       3.25630785686
244.530566321       3.06587131184
245.030628829       2.87819607699
245.530691336       2.69390116527
246.030753844       2.51361229665
246.530816352       2.33794523401
247.03087886       2.16749040237
247.530941368       2.00279916476
248.031003875       1.84437203928
248.531066383       1.69264905313
249.031128891       1.54800234211
249.531191399       1.41073102235
250.031253907       1.28105828638
250.531316415       1.15913061133
251.031378922       1.04501891268
251.53144143       0.938721434561
252.031503938       0.840168137004
252.531566446       0.749226321496
253.031628954       0.665707227597
253.531691461       0.589373335218
254.031753969       0.519946117023
254.531816477       0.457114002666
255.031878985       0.400540339205
255.531941493       0.349871158665
256.032004001       0.304742592767
256.532066508       0.264787804857
257.032129016       0.229643338828
257.532191524       0.198954813214
258.032254032       0.172381914767
258.53231654       0.149602669032
259.032379047       0.130316985289
259.532441555       0.11424948946
260.032504063       0.101151671145
260.532566571       0.0908033799635
261.032629079       0.0830137121129
261.532691586       0.0776213308786
262.032754094       0.0744942652062
262.532816602       0.0735292289066
263.03287911       0.0746505001585
263.532941618       0.0778083972638
264.033004126       0.0829773826341
264.533066633       0.0901538232515
265.033129141       0.0993534327848
265.533191649       0.110608418535
266.033254157       0.123964355707
266.533316665       0.139476812351
