#  x                 y             frequency           intensity
0.0       1.51928441666e-16       68.91       1.96447
0.500062507813       2.59792359968e-16       164.64       6.33609
1.00012501563       4.42503571083e-16       234.73       10.14637
1.50018752344       7.50775855725e-16       295.75       15.42479
2.00025003125       1.26884019619e-15       332.01       18.59374
2.50031253907       2.13602667615e-15       354.06       14.71396
3.00037504688       3.58186760259e-15       418.95       3.55799
3.50043755469       5.98295172437e-15       548.43       4.95517
4.00050006251       9.95461759399e-15       587.33       68.75631
4.50056257032       1.64982080885e-14       607.50       56.60944
5.00062507813       2.72365493814e-14       742.06       7.47133
5.50068758595       4.47889114304e-14       809.06       12.02824
6.00075009376       7.33655270686e-14       845.59       127.93964
6.50081260158       1.19706212385e-13       881.16       81.43695
7.00087510939       1.9455591999e-13       995.13       14.29282
7.5009376172       3.14974448177e-13       1055.74       65.64022
8.00100012502       5.07936369282e-13       1088.72       96.41453
8.50106263283       8.15917803957e-13       1114.87       6.46511
9.00112514064       1.30552929783e-12       1186.22       5.39238
9.50118764846       2.08079812549e-12       1224.02       24.29567
10.0012501563       3.30351578614e-12       1226.46       5.30150
10.5013126641       5.22427389712e-12       1314.72       4.11273
11.0013751719       8.22959764307e-12       1376.78       15.96540
11.5014376797       1.29132149404e-11       1390.63       11.44899
12.0015001875       2.01833508823e-11       1408.57       472.50544
12.5015626953       3.14235519505e-11       1455.31       26.42808
13.0016252032       4.87326906204e-11       1509.56       1.04351
13.501687711       7.52815616618e-11       1658.48       36.72143
14.0017502188       1.1584037694e-10       1811.06       285.19587
14.5018127266       1.77555617646e-10       2950.36       60.26937
15.0018752344       2.71089056326e-10       3048.33       12.61978
15.5019377422       4.12280379483e-10       3065.84       30.08521
16.00200025       6.24563300591e-10       3447.54       242.10622
16.5020627578       9.42460958919e-10       3491.46       0.96308
17.0021252657       1.41662006572e-09       3581.18       11.49311
17.5021877735       2.12102858908e-09       3671.14       144.97421
18.0022502813       3.16331738847e-09
18.5023127891       4.69939691974e-09
19.0023752969       6.95415874301e-09
19.5024378047       1.02506212093e-08
20.0025003125       1.50507757003e-08
20.5025628204       2.20125671984e-08
21.0026253282       3.20690148645e-08
21.502687836       4.65375650312e-08
22.0027503438       6.72705233258e-08
22.5028128516       9.686102698e-08
23.0028753594       1.38923733272e-07
23.5029378672       1.98475513675e-07
24.003000375       2.82449322082e-07
24.5030628829       4.00384495756e-07
25.0031253907       5.65349587774e-07
25.5031878985       7.9517006253e-07
26.0032504063       1.1140535706e-06
26.5033129141       1.55473094207e-06
27.0033754219       2.16126251903e-06
27.5034379297       2.99269814819e-06
28.0035004376       4.12782636744e-06
28.5035629454       5.6713054671e-06
29.0036254532       7.76153770799e-06
29.503687961       1.0580729623e-05
30.0037504688       1.43676776135e-05
30.5038129766       1.943393051e-05
31.0038754844       2.61841107585e-05
31.5039379922       3.51413244927e-05
32.0040005001       4.69787585552e-05
32.5040630079       6.25587494957e-05
33.0041255157       8.29808147638e-05
33.5041880235       0.000109640357643
34.0042505313       0.000144299991433
34.5043130391       0.000189175669697
35.0043755469       0.000247040050728
35.5044380548       0.000321345756
36.0045005626       0.0004163713919
36.5045630704       0.000537393376083
37.0046255782       0.00069088672606
37.504688086       0.000884758006436
38.0047505938       0.00112861356818
38.5048131016       0.00143406602106
39.0048756095       0.00181508152935
39.5049381173       0.00228836998062
40.0050006251       0.00287381931633
40.5050631329       0.00359497430108
41.0051256407       0.0044795587183
41.5051881485       0.00556003839056
42.0052506563       0.00687422051913
42.5053131641       0.00846588261396
43.005375672       0.0103854217504
43.5054381798       0.0126905120659
44.0055006876       0.01544675534
44.5055631954       0.0187283062444
45.0056257032       0.0226184504968
45.505688211       0.0272101107976
46.0057507188       0.0326062522189
46.5058132267       0.0389201557926
47.0058757345       0.046275526583
47.5059382423       0.0548064007255
48.0060007501       0.0646568149606
48.5060632579       0.0759802022926
49.0061257657       0.0889384787613
49.5061882735       0.103700789107
50.0062507813       0.120441883486
50.5063132892       0.139340103483
51.006375797       0.160574963514
51.5064383048       0.184324323335
52.0065008126       0.210761158688
52.5065633204       0.240049949932
53.0066258282       0.2723427227
53.506688336       0.307774789626
54.0067508439       0.34646025788
54.5068133517       0.388487382814
55.0068758595       0.433913863108
55.5069383673       0.482762186663
56.0070008751       0.535015148495
56.5070633829       0.590611671304
57.0071258907       0.649443065691
57.5071883985       0.711349869436
58.0072509064       0.776119403447
58.5073134142       0.843484175456
59.007375922       0.91312125113
59.5074384298       0.984652695835
60.0075009376       1.05764716903
60.5075634454       1.13162272754
61.0076259532       1.20605086425
61.5076884611       1.28036177588
62.0077509689       1.35395081842
62.5078134767       1.42618607257
63.0078759845       1.49641690556
63.5079384923       1.56398338072
64.0080010001       1.62822633478
64.5080635079       1.68849791448
65.0081260158       1.74417234188
65.5081885236       1.79465666114
66.0082510314       1.8394012109
66.5083135392       1.87790956437
67.008376047       1.9097476867
67.5084385548       1.93455207361
68.0085010626       1.9520366579
68.5085635704       1.96199830069
69.0086260783       1.96432071971
69.5086885861       1.95897674866
70.0087510939       1.94602886613
70.5088136017       1.92562797977
71.0088761095       1.8980104987
71.5089386173       1.86349377363
72.0090011251       1.82247002767
72.509063633       1.77539894006
73.0091261408       1.72279907879
73.5091886486       1.66523840535
74.0092511564       1.60332409412
74.5093136642       1.53769192095
75.009376172       1.46899547873
75.5094386798       1.39789547364
76.0095011876       1.32504934319
76.5095636955       1.25110141897
77.0096262033       1.17667383155
77.5096887111       1.10235832594
78.0097512189       1.02870912231
78.5098137267       0.956236921842
79.0098762345       0.885404120786
79.5099387423       0.816621260217
80.0100012502       0.750244704511
80.510063758       0.68657550985
81.0101262658       0.625859415857
81.5101887736       0.568287869446
82.0102512814       0.513999970552
82.5103137892       0.463085215007
83.010376297       0.415586900307
83.5104388049       0.371506055426
84.0105013127       0.330805755722
84.5105638205       0.293415688044
85.0106263283       0.259236838713
85.5106888361       0.228146187617
86.0107513439       0.200001304436
86.5108138517       0.174644757464
87.0108763595       0.151908260818
87.5109388674       0.131616501532
88.0110013752       0.113590603487
88.511063883       0.0976511998809
89.0111263908       0.0836210995993
89.5111888986       0.0713275451309
90.0112514064       0.0606040703026
90.5113139142       0.0512919750557
91.0113764221       0.0432414416244
91.5114389299       0.0363123218848
92.0115014377       0.0303746293782
92.5115639455       0.0253087717166
93.0116264533       0.0210055599211
93.5116889611       0.0173660309022
94.0117514689       0.01430111798
94.5118139767       0.0117312022546
95.0118764846       0.00958557497303
95.5119389924       0.00780183798268
96.0120015002       0.00632526607731
96.512064008       0.00510815167368
97.0121265158       0.00410914893029
97.5121890236       0.00329263122789
98.0122515314       0.0026280729527
98.5123140393       0.00208946381003
99.0123765471       0.00165476148218
99.5124390549       0.00130538634693
100.012501563       0.00102576019448
100.512564071       0.000802889411845
101.012626578       0.000625991927031
101.512689086       0.00048616629563
102.012751594       0.000376100642383
102.512814102       0.000289818708172
103.01287661       0.000222459968223
103.512939117       0.000170090649417
104.013001625       0.000129542454854
104.513064133       9.82758759364e-05
105.013126641       7.42651129487e-05
105.513189149       5.59018139109e-05
106.013251656       4.19150614409e-05
106.513314164       3.13052741106e-05
107.013376672       2.32899311497e-05
107.51343918       1.72592685227e-05
108.013501688       1.27403239225e-05
108.513564196       9.36792354376e-06
109.013626703       6.86140171109e-06
109.513689211       5.00602394618e-06
110.013751719       3.63824431804e-06
110.513814227       2.63406917228e-06
111.013876735       1.89992239923e-06
111.513939242       1.3655134944e-06
112.01400175       9.78300253053e-07
112.514064258       6.99214622161e-07
113.014126766       4.9938464745e-07
113.514189274       3.57639222219e-07
114.014251781       2.58627022608e-07
114.514314289       1.91418068328e-07
115.014376797       1.48487144057e-07
115.514439305       1.25004121184e-07
116.014501813       1.18378210084e-07
116.514564321       1.28022456416e-07
117.014626828       1.55322432083e-07
117.514689336       2.0381010698e-07
118.014751844       2.79561383876e-07
118.514814352       3.91854853615e-07
119.01487686       5.5415119617e-07
119.514939367       7.85478670527e-07
120.015001875       1.11234184589e-06
120.515064383       1.5713099061e-06
121.015126891       2.21248956916e-06
121.515189399       3.10414829433e-06
122.015251906       4.33882876119e-06
122.515314414       6.04138876589e-06
123.015376922       8.37951528323e-06
123.51543943       1.1577401518e-05
124.015501938       1.59334457542e-05
124.515564446       2.18430355057e-05
125.015626953       2.98277249406e-05
125.515689461       4.05724029674e-05
126.015751969       5.49723888201e-05
126.515814477       7.4192786138e-05
127.015876985       9.9742879338e-05
127.515939492       0.000133568870189
128.016002       0.000178168828772
128.516064508       0.000236734369786
129.016127016       0.000313324257412
129.516189524       0.000413075880558
130.016252032       0.00054246131073
130.516314539       0.000709595436543
131.016377047       0.000924604433992
131.516439555       0.00120006354393
132.016502063       0.00155151374262
132.516564571       0.00199806735248
133.016627078       0.00256311288367
133.516689586       0.00327512934714
134.016752094       0.00416861985293
134.516814602       0.00528517341073
135.01687711       0.00667466238548
135.516939617       0.00839658092884
136.017002125       0.010521526808
136.517064633       0.0131328252952
137.017127141       0.0163282890848
137.517189649       0.0202221025097
138.017252157       0.0249468116088
138.517314664       0.0306553938509
139.017377172       0.0375233726098
139.51743968       0.045750931909
140.017502188       0.0555649766859
140.517564696       0.0672210731058
141.017627203       0.0810051925933
141.517689711       0.097235172637
142.017752219       0.116261797522
142.517814727       0.138469393493
143.017877235       0.164275826023
143.517939742       0.19413178252
144.01800225       0.228519222557
144.518064758       0.267948880257
145.018127266       0.312956710385
145.518189774       0.364099181525
146.018252282       0.421947336926
146.518314789       0.487079566425
147.018377297       0.560073061393
147.518439805       0.641493958829
148.018502313       0.731886220034
148.518564821       0.831759333234
149.018627328       0.941574976949
149.518689836       1.06173283073
150.018752344       1.19255577048
150.518814852       1.33427473515
151.01887736       1.48701359829
151.518939867       1.65077441959
152.019002375       1.82542348567
152.519064883       2.01067857453
153.019127391       2.20609789142
153.519189899       2.41107112443
154.019252407       2.62481305352
154.519314914       2.84636011708
155.019377422       3.07457029398
155.51943993       3.30812659749
156.019502438       3.54554440005
156.519564946       3.78518271796
157.019627453       4.02525948271
157.519689961       4.26387071548
158.019752469       4.49901340541
158.519814977       4.7286117754
159.019877485       4.95054650464
159.519939992       5.16268636983
160.0200025       5.36292167099
160.520065008       5.549198727
161.020127516       5.71955466419
161.520190024       5.87215168171
162.020252532       6.0053099617
162.520315039       6.11753840289
163.020377547       6.20756239256
163.520440055       6.2743478944
164.020502563       6.31712121583
164.520565071       6.33538392655
165.020627578       6.32892252617
165.520690086       6.29781259869
166.020752594       6.2424173408
166.520815102       6.16338050408
167.02087761       6.06161394287
167.520940118       5.93828010457
168.021002625       5.79476993241
168.521065133       5.63267676793
169.021127641       5.4537669374
169.521190149       5.25994778054
170.021252657       5.05323392871
170.521315164       4.83571266291
171.021377672       4.60950917832
171.52144018       4.37675255414
172.021502688       4.13954317532
172.521565196       3.89992228145
173.021627703       3.65984422794
173.521690211       3.42115194308
174.021752719       3.18555595218
174.521815227       2.95461722436
175.021877735       2.72973398024
175.521940243       2.51213248566
176.02200275       2.30286174987
176.522065258       2.10279195079
177.022127766       1.91261632593
177.522190274       1.73285619849
178.022252782       1.5638687548
178.522315289       1.40585715124
179.022377797       1.2588825076
179.522440305       1.1228773371
180.022502813       0.997659970664
180.522565321       0.882949552969
181.022627828       0.778381217743
181.522690336       0.683521088155
182.022752844       0.597880792763
182.522815352       0.520931235836
183.02287786       0.452115411281
183.522940368       0.390860099782
184.023002875       0.336586337504
184.523065383       0.288718590468
185.023127891       0.246692610311
185.523190399       0.209961983872
186.023252907       0.178003420272
186.523315414       0.150320844761
187.023377922       0.126448388445
187.52344043       0.105952377387
188.023502938       0.0884324337892
188.523565446       0.0735218065547
189.023627953       0.0608870490174
189.523690461       0.0502271587466
190.023752969       0.0412722886356
190.523815477       0.0337821306931
191.023877985       0.0275440646523
191.523940493       0.0223711532703
192.024003       0.0181000555074
192.524065508       0.0145889180924
193.024128016       0.0117152956318
193.524190524       0.00937413971209
194.024253032       0.00747588856035
194.524315539       0.00594468093506
195.024378047       0.00471671108184
195.524440555       0.00373873585894
196.024503063       0.00296674049898
196.524565571       0.00236476589224
197.024628079       0.00190389768776
197.524690586       0.00156141582894
198.024753094       0.00132010227649
198.524815602       0.00116770452058
199.02487811       0.00109655293944
199.524940618       0.00110333101475
200.025003125       0.00118899875496
200.525065633       0.00135887129505
201.025128141       0.00162285642337
201.525190649       0.00199585661677
202.025253157       0.00249834292509
202.525315664       0.00315710960922
203.025378172       0.00400621966984
203.52544068       0.00508815216531
204.025503188       0.00645516235715
204.525565696       0.00817086508207
205.025628204       0.0103120501696
205.525690711       0.0129707360379
206.025753219       0.0162564636502
206.525815727       0.0202988276504
207.025878235       0.025250234591
207.525940743       0.0312888696269
208.02600325       0.0386218428158
208.526065758       0.0474884742516
209.026128266       0.0581636637345
209.526190774       0.0709612757069
210.026253282       0.0862374540284
210.526315789       0.104393764182
211.026378297       0.125880043191
211.526440805       0.151196820485
212.026503313       0.180897156916
212.526565821       0.215587734915
213.026628329       0.255929021349
213.526690836       0.302634316982
214.026753344       0.356467503596
214.526815852       0.418239302869
215.02687836       0.48880187098
215.526940868       0.569041570558
216.027003375       0.659869787691
216.527065883       0.762211696795
217.027128391       0.876992920372
217.527190899       1.00512408396
218.027253407       1.14748332826
218.527315914       1.30489690977
219.027378422       1.47811809611
219.52744093       1.66780464208
220.027503438       1.8744952129
220.527565946       2.09858520138
221.027628454       2.34030246134
221.527690961       2.59968354773
222.027753469       2.87655111114
222.527815977       3.17049313668
223.027878485       3.48084474241
223.527940993       3.80667325633
224.0280035       4.14676727224
224.528066008       4.49963034073
225.028128516       4.86347988256
225.528191024       5.23625181641
226.028253532       5.61561127374
226.52831604       5.99896963188
227.028378547       6.38350793603
227.528441055       6.76620660574
228.028503563       7.14388113719
228.528566071       7.51322332504
229.028628579       7.87084734326
229.528691086       8.21333985012
230.028753594       8.5373131255
230.528816102       8.8394601148
231.02887861       9.11661014952
231.528941118       9.36578404514
232.029003625       9.58424724521
232.529066133       9.76955969083
233.029128641       9.9196211461
233.529191149       10.0327108033
234.029253657       10.1075201244
234.529316165       10.1431780418
235.029378672       10.1392678408
235.52944118       10.0958352656
236.029503688       10.0133876282
236.529566196       9.89288394577
237.029628704       9.73571637263
237.529691211       9.54368343095
238.029753719       9.31895575943
238.529816227       9.06403529163
239.029878735       8.78170893705
239.529941243       8.47499796256
240.03000375       8.14710435717
240.530066258       7.80135550626
241.030128766       7.4411485033
241.530191274       7.06989538766
242.030253782       6.69097052048
242.53031629       6.30766120001
243.030378797       5.92312247897
243.530441305       5.54033698557
244.030503813       5.16208037276
244.530566321       4.79089283524
245.030628829       4.42905694593
245.530691336       4.07858188091
246.030753844       3.74119392921
246.530816352       3.41833302673
247.03087886       3.11115491634
247.530941368       2.82053842123
248.031003875       2.54709722876
248.531066383       2.29119551796
249.031128891       2.05296672473
249.531191399       1.83233472488
250.031253907       1.62903672352
250.531316415       1.44264716795
251.031378922       1.27260204699
251.53144143       1.11822299923
252.031503938       0.978740723053
252.531566446       0.853317257591
253.031628954       0.741066785069
253.531691461       0.641074685434
254.031753969       0.552414653468
254.531816477       0.474163762946
255.031878985       0.405415430623
255.531941493       0.34529029345
256.032004001       0.292945064496
256.532066508       0.247579476153
257.032129016       0.208441453292
257.532191524       0.174830684352
258.032254032       0.146100775422
258.53231654       0.121660182106
259.032379047       0.10097211704
259.532441555       0.0835536286052
260.032504063       0.0689740395188
260.532566571       0.0568529236597
261.032629079       0.0468577866776
261.532691586       0.0387016014793
262.032754094       0.0321403343436
262.532816602       0.0269705818028
263.03287911       0.0230274230232
263.532941618       0.0201825775373
264.033004126       0.0183429440237
264.533066633       0.0174495824484
265.033129141       0.0174771892147
265.533191649       0.018434102845
