#  x                 y             frequency           intensity
0.0       1.47162339132e-11       57.44       2.30281
0.500062507813       2.30071196877e-11       121.81       8.52000
1.00012501563       3.58286904014e-11       188.23       4.05413
1.50018752344       5.55779763633e-11       237.63       8.66495
2.00025003125       8.58771529837e-11       286.66       5.58568
2.50031253907       1.32176929723e-10       340.30       1.08599
3.00037504688       2.0264542064e-10       407.63       26.69312
3.50043755469       3.09471771862e-10       528.27       10.77318
4.00050006251       4.7076959066e-10       563.78       120.86002
4.50056257032       7.13343774181e-10       596.16       103.34755
5.00062507813       1.07669441819e-09       656.71       16.18797
5.50068758595       1.6187849607e-09       741.58       27.18409
6.00075009376       2.42431457939e-09       846.80       119.41519
6.50081260158       3.61652855562e-09       895.22       32.27498
7.00087510939       5.37400340017e-09       948.28       61.93567
7.5009376172       7.95439380485e-09       1020.35       3.00401
8.00100012502       1.17278756476e-08       1084.01       146.43060
8.50106263283       1.72240282724e-08       1122.55       146.83813
9.00112514064       2.51972543503e-08       1161.18       73.41934
9.50118764846       3.67176453851e-08       1185.80       48.78041
10.0012501563       5.32966042718e-08       1258.04       6.12915
10.5013126641       7.70597096924e-08       1292.16       11.53098
11.0013751719       1.10983472922e-07       1339.63       48.03281
11.5014376797       1.5921807392e-07       1373.77       2.31195
12.0015001875       2.27525215328e-07       1425.27       10.73995
12.5015626953       3.23869324292e-07       1435.12       73.05465
13.0016252032       4.59211979809e-07       1513.86       1.01556
13.501687711       6.48574271345e-07       1669.49       35.18996
14.0017502188       9.12450548314e-07       1806.18       285.97035
14.5018127266       1.2786805806e-06       2963.73       52.39620
15.0018752344       1.78491654682e-06       3072.78       7.63978
15.5019377422       2.48185768594e-06       3102.83       20.14247
16.00200025       3.43747023811e-06       3488.20       6.26376
16.5020627578       4.74246497038e-06       3568.77       10.71255
17.0021252657       6.51737078819e-06       3686.99       66.10802
17.5021877735       8.92162245212e-06       3716.37       61.29234
18.0022502813       1.21651751086e-05
18.5023127891       1.65232700785e-05
19.0023752969       2.235510693e-05
19.5024378047       3.01273279146e-05
20.0025003125       4.04433936309e-05
20.5025628204       5.40801240672e-05
21.0026253282       7.20328969457e-05
21.502687836       9.55712345322e-05
22.0027503438       0.000126306768439
22.5028128516       0.000166275845428
23.0028753594       0.000218039319785
23.5029378672       0.00028480236102
24.003000375       0.000370557378298
24.5030628829       0.000480253410698
25.0031253907       0.000619995537479
25.5031878985       0.000797278003592
26.0032504063       0.00102125480774
26.5033129141       0.0013030514348
27.0033754219       0.00165612119948
27.5034379297       0.00209664926955
28.0035004376       0.0026440068186
28.5035629454       0.00332125688304
29.0036254532       0.00415571233232
29.503687961       0.00517954487036
30.0037504688       0.00643044214646
30.5038129766       0.00795230784569
31.0038754844       0.00979599704563
31.5039379922       0.0120200761776
32.0040005001       0.0146915936413
32.5040630079       0.0178868435383
33.0041255157       0.0216921011867
33.5041880235       0.0262043051467
34.0042505313       0.0315316565579
34.5043130391       0.0377941028035
35.0043755469       0.0451236690691
35.5044380548       0.0536645984353
36.0045005626       0.0635732589743
36.5045630704       0.0750177751349
37.0046255782       0.0881773407326
37.504688086       0.103241172356
38.0047505938       0.120407065161
38.5048131016       0.139879518033
39.0048756095       0.161867402112
39.5049381173       0.186581155734
40.0050006251       0.214229500004
40.5050631329       0.245015682339
41.0051256407       0.279133270283
41.5051881485       0.316761534371
42.0052506563       0.358060476457
42.5053131641       0.403165578183
43.005375672       0.452182362604
43.5054381798       0.505180879725
44.0055006876       0.562190243028
44.5055631954       0.623193358316
45.0056257032       0.688121997485
45.505688211       0.756852377431
46.0057507188       0.829201407483
46.5058132267       0.904923766961
47.0058757345       0.983709967172
47.5059382423       1.06518553911
48.0060007501       1.14891146929
48.5060632579       1.2343859815
49.0061257657       1.32104773255
49.5061882735       1.40828045523
50.0062507813       1.49541904381
50.5063132892       1.58175703597
51.006375797       1.666555403
51.5064383048       1.74905251737
52.0065008126       1.82847512645
52.5065633204       1.90405012295
53.0066258282       1.97501687022
53.506688336       2.0406398131
54.0067508439       2.10022108584
54.5068133517       2.15311281723
55.0068758595       2.19872883069
55.5069383673       2.2365554449
56.0070008751       2.26616109686
56.5070633829       2.28720453549
57.0071258907       2.29944136843
57.5071883985       2.30272878634
58.0072509064       2.29702833703
58.5073134142       2.28240667409
59.007375922       2.25903425965
59.5074384298       2.22718205656
60.0075009376       2.18721629972
60.5075634454       2.13959148766
61.0076259532       2.08484178185
61.5076884611       2.02357104118
62.0077509689       1.95644175155
62.5078134767       1.88416313366
63.0078759845       1.80747872682
63.5079384923       1.72715375106
64.0080010001       1.64396254534
64.5080635079       1.5586763659
65.0081260158       1.47205180739
65.5081885236       1.3848200805
66.0082510314       1.29767734553
66.5083135392       1.21127626269
67.008376047       1.1262188785
67.5084385548       1.04305092518
68.0085010626       0.962257567718
68.5085635704       0.884260592946
69.0086260783       0.809416997446
69.5086885861       0.738018897882
70.0087510939       0.67029465873
70.5088136017       0.606411109386
71.0088761095       0.546476705293
71.5089386173       0.490545476268
72.0090011251       0.438621599444
72.509063633       0.390664433815
73.0091261408       0.346593857854
73.5091886486       0.306295760289
74.0092511564       0.269627546332
74.5093136642       0.236423536512
75.009376172       0.206500152083
75.5094386798       0.179660798957
76.0095011876       0.155700380495
76.5095636955       0.134409387712
77.0096262033       0.115577532796
77.5096887111       0.0989969080508
78.0097512189       0.0844646668794
78.5098137267       0.071785236127
79.0098762345       0.0607720797936
79.5099387423       0.0512490427487
80.0100012502       0.0430513096828
80.510063758       0.0360260192084
81.0101262658       0.0300325759259
81.5101887736       0.0249427046088
82.0102512814       0.0206402906519
82.5103137892       0.0170210498229
83.010376297       0.0139920683889
83.5104388049       0.0114712521105
84.0105013127       0.00938671961341
84.5105638205       0.00767617247314
85.0106263283       0.0062862711478
85.5106888361       0.00517204281558
86.0107513439       0.00429634432472
86.5108138517       0.00362940092792
87.0108763595       0.00314843929484
87.5109388674       0.00283743149386
88.0110013752       0.00268696519323
88.511063883       0.00269425421293
89.0111263908       0.00286330269449
89.5111888986       0.00320523545737
90.0112514064       0.00373880646677
90.5113139142       0.00449109661891
91.0113764221       0.00549841111106
91.5114389299       0.00680738534879
92.0115014377       0.00847630648484
92.5115639455       0.0105766551172
93.0116264533       0.0131948682301
93.5116889611       0.0164343199872
94.0117514689       0.0204175113428
94.5118139767       0.0252884525118
95.0118764846       0.0312152140655
95.5119389924       0.0383926127688
96.0120015002       0.0470449872799
96.512064008       0.0574290066197
97.0121265158       0.0698364410532
97.5121890236       0.0845968110173
98.0122515314       0.102079815346
98.5123140393       0.122697425781
99.0123765471       0.146905521196
99.5124390549       0.175204922794
100.012501563       0.208141681542
100.512564071       0.246306462076
101.012626578       0.290332864189
101.512689086       0.340894524627
102.012751594       0.398700849105
102.512814102       0.464491238056
103.01287661       0.539027690203
103.512939117       0.623085696073
104.013001625       0.717443369323
104.513064133       0.822868807055
105.013126641       0.940105720895
105.513189149       1.0698574376
106.013251656       1.21276943029
106.513314164       1.36941060751
107.013376672       1.54025365522
107.51343918       1.72565479428
108.013501688       1.92583338046
108.513564196       2.1408518327
109.013626703       2.37059642515
109.513689211       2.61475951688
110.013751719       2.87282381695
110.513814227       3.14404928961
111.013876735       3.42746329187
111.513939242       3.72185450349
112.01400175       4.02577115482
112.514064258       4.33752398229
113.014126766       4.65519424503
113.514189274       4.97664702025
114.014251781       5.29954986322
114.514314289       5.62139677247
115.014376797       5.93953724749
115.514439305       6.25121006842
116.014501813       6.55358127185
116.514564321       6.84378564824
117.014626828       7.11897095169
117.514689336       7.37634389606
118.014751844       7.61321691914
118.514814352       7.8270546323
119.01487686       8.01551884038
119.514939367       8.17651101836
120.015001875       8.30821116803
120.515064383       8.4091120498
121.015126891       8.47804788977
121.515189399       8.51421679774
122.015251906       8.51719629344
122.515314414       8.48695152069
123.015376922       8.42383592609
123.51543943       8.32858438393
124.015501938       8.20229895413
124.515564446       8.04642765922
125.015626953       7.8627368518
125.515689461       7.65327790957
126.015751969       7.42034913568
126.515814477       7.16645385286
127.015876985       6.89425575774
127.515939492       6.6065326449
128.016002       6.30612961805
128.516064508       5.99591287925
129.016127016       5.67872512816
129.516189524       5.35734351566
130.016252032       5.03444098372
130.516314539       4.71255169109
131.016377047       4.39404107817
131.516439555       4.08108096954
132.016502063       3.77562995517
132.516564571       3.47941913653
133.016627078       3.19394317694
133.516689586       2.92045646107
134.016752094       2.65997404946
134.516814602       2.41327701411
135.01687711       2.18092166148
135.516939617       1.96325209134
136.017002125       1.7604155032
136.517064633       1.5723796464
137.017127141       1.39895181369
137.517189649       1.23979879884
138.017252157       1.09446727514
138.517314664       0.96240409915
139.017377172       0.842976101956
139.51743968       0.735488993237
140.017502188       0.639205071017
140.517564696       0.553359497727
141.017627203       0.477174969875
141.517689711       0.40987467172
142.017752219       0.350693461395
142.517814727       0.298887289718
143.017877235       0.253740896589
143.517939742       0.214573866961
144.01800225       0.180745157783
144.518064758       0.151656229179
145.018127266       0.126752927925
145.518189774       0.105526279533
146.018252282       0.0875123478267
146.518314789       0.0722913184992
147.018377297       0.0594859567435
147.518439805       0.048759579514
148.018502313       0.0398136711059
148.518564821       0.0323852573768
149.018627328       0.0262441397398
149.518689836       0.021190075664
150.018752344       0.0170499783263
150.518814852       0.0136751946701
151.01887736       0.0109389087622
151.518939867       0.00873370619801
152.019002375       0.00696932552743
152.519064883       0.00557061430798
153.019127391       0.00447570043987
153.519189899       0.00363438383345
154.019252407       0.0030067491131
154.519314914       0.00256199684256
155.019377422       0.00227748851631
155.51943993       0.00213799914031
156.019502438       0.0021351704519
156.519564946       0.00226715753344
157.019627453       0.0025384615871
157.519689961       0.00295994179566
158.019752469       0.00354899933843
158.519814977       0.0043299266162
159.019877485       0.00533441442784
159.519939992       0.00660220911192
160.0200025       0.00818191041251
160.520065008       0.0101318989612
161.020127516       0.0125213797209
161.520190024       0.0154315244692
162.020252532       0.0189566924004
162.520315039       0.0232057032126
163.020377547       0.028303131689
163.520440055       0.0343905868732
164.020502563       0.0416279326324
164.520565071       0.0501943998977
165.020627578       0.0602895344103
165.520690086       0.0721339176831
166.020752594       0.0859695934516
166.520815102       0.102060127512
167.02087761       0.120690225938
167.520940118       0.142164835636
168.021002625       0.166807652523
168.521065133       0.194958966575
169.021127641       0.226972780119
169.521190149       0.263213146167
170.021252657       0.30404968761
170.521315164       0.349852275774
171.021377672       0.400984868084
171.52144018       0.457798529261
172.021502688       0.520623688084
172.521565196       0.589761711795
173.021627703       0.665475911923
173.521690211       0.747982127632
174.021752719       0.837439064698
174.521815227       0.933938598448
175.021877735       1.03749627632
175.521940243       1.14804227852
176.02200275       1.26541311243
176.522065258       1.38934432632
177.022127766       1.51946452978
177.522190274       1.65529100079
178.022252782       1.79622714189
178.522315289       1.94156202059
179.022377797       2.09047219088
179.522440305       2.24202594566
180.022502813       2.39519009283
180.522565321       2.5488392844
181.022627828       2.70176785743
181.522690336       2.8527040725
182.022752844       3.00032656023
182.522815352       3.1432827128
183.02287786       3.28020868756
183.522940368       3.40975062726
184.023002875       3.53058664755
184.523065383       3.64144910073
185.023127891       3.74114659689
185.523190399       3.82858525056
186.023252907       3.90278862497
186.523315414       3.96291586645
187.023377922       4.00827755838
187.52344043       4.03834887715
188.023502938       4.05277969881
188.523565446       4.05140138474
189.023627953       4.03423006214
189.523690461       4.0014663104
190.023752969       3.95349126171
190.523815477       3.89085922221
191.023877985       3.81428701326
191.523940493       3.72464031971
192.024003       3.62291740867
192.524065508       3.51023064701
193.024128016       3.38778629572
193.524190524       3.2568630938
194.024253032       3.1187901617
194.524315539       2.9749247553
195.024378047       2.8266303862
195.524440555       2.67525579359
196.024503063       2.52211520896
196.524565571       2.36847030019
197.024628079       2.21551411704
197.524690586       2.06435729003
198.024753094       1.91601666101
198.524815602       1.77140644901
199.02487811       1.63133198242
199.524940618       1.4964859602
200.025003125       1.36744714224
200.525065633       1.24468131522
201.025128141       1.12854433455
201.525190649       1.01928700843
202.025253157       0.917061564565
202.525315664       0.821929426001
203.025378172       0.733870017527
203.52544068       0.652790328474
204.025503188       0.578534970171
204.525565696       0.510896485439
205.025628204       0.449625692091
205.525690711       0.394441870921
206.025753219       0.34504263965
206.525815727       0.301113386295
207.025878235       0.262336167171
207.525940743       0.228398004888
208.02600325       0.198998549358
208.526065758       0.173857089
209.026128266       0.152718919361
209.526190774       0.135361091835
210.026253282       0.121597575667
210.526315789       0.111283871926
211.026378297       0.104321118669
211.526440805       0.100659722318
212.026503313       0.100302541729
212.526565821       0.103307638999
213.026628329       0.109790595498
213.526690836       0.119926373514
214.026753344       0.133950684259
214.526815852       0.152160802614
215.02687836       0.174915748998
215.526940868       0.20263574009
216.027003375       0.235800793996
216.527065883       0.274948362852
217.027128391       0.320669857909
217.527190899       0.373605929924
218.027253407       0.434440371965
218.527315914       0.503892523521
219.027378422       0.582708074501
219.52744093       0.671648195833
220.027503438       0.771476959902
220.527565946       0.882947058851
221.027628454       1.00678388118
221.527690961       1.1436680661
222.027753469       1.29421671925
222.527815977       1.45896354148
223.027878485       1.63833819078
223.527940993       1.83264526588
224.0280035       2.04204336344
224.528066008       2.26652471764
225.028128516       2.50589597821
225.528191024       2.75976071656
226.028253532       3.02750426825
226.52831604       3.30828152024
227.028378547       3.60100823143
227.528441055       3.90435643388
228.028503563       4.21675439856
228.528566071       4.536391565
229.028628579       4.86122872806
229.528691086       5.18901365133
230.028753594       5.51730213689
230.528816102       5.8434844301
231.02887861       6.16481667973
231.528941118       6.47845701391
232.029003625       6.78150563656
232.529066133       7.07104820236
233.029128641       7.3442015983
233.529191149       7.59816114993
234.029253657       7.83024818743
234.529316165       8.03795685339
235.029378672       8.21899901441
235.52944118       8.37134615422
236.029503688       8.49326717745
236.529566196       8.58336113965
237.029628704       8.64058403843
237.529691211       8.66426894948
238.029753719       8.65413896446
238.529816227       8.61031257967
239.029878735       8.53330138911
239.529941243       8.42400014451
240.03000375       8.28366945259
240.530066258       8.11391157737
241.030128766       7.91663999693
241.530191274       7.69404352354
242.030253782       7.44854592725
242.53031629       7.18276210352
243.030378797       6.89945189079
243.530441305       6.60147267419
244.030503813       6.29173190543
244.530566321       5.97314062944
245.030628829       5.64856903611
245.530691336       5.32080495667
246.030753844       4.99251610093
246.530816352       4.66621669164
247.03087886       4.34423899918
247.530941368       4.02871012088
248.031003875       3.72153419017
248.531066383       3.42438004577
249.031128891       3.13867424691
249.531191399       2.8655991898
250.031253907       2.60609596755
250.531316415       2.36087152234
251.031378922       2.13040956682
251.53144143       1.91498470197
252.031503938       1.7146791305
252.531566446       1.52940135719
253.031628954       1.35890627959
253.531691461       1.20281610014
254.031753969       1.06064153338
254.531816477       0.931802834925
255.031878985       0.815650240444
255.531941493       0.711483469031
256.032004001       0.618570014101
256.532066508       0.536162012877
257.032129016       0.46351155089
257.532191524       0.399884318331
258.032254032       0.34457158927
258.53231654       0.29690054134
259.032379047       0.256242971811
259.532441555       0.222022495629
260.032504063       0.193720331927
260.532566571       0.17087979807
261.032629079       0.15310963493
261.532691586       0.14008628467
262.032754094       0.131555233743
262.532816602       0.127331520166
263.03287911       0.127299486596
263.532941618       0.131411840561
264.033004126       0.139688061542
264.533066633       0.152212172825
265.033129141       0.169129875211
265.533191649       0.190645021017
266.033254157       0.217015391323
266.533316665       0.248547728078
267.033379172       0.285591966271
267.53344168       0.328534610603
268.033504188       0.377791206369
268.533566696       0.433797865951
269.033629204       0.497001830426
269.533691711       0.567851070158
270.033754219       0.646782958419
