#  x                 y             frequency           intensity
0.0       3.25758547651e-11       56.52       2.24715
0.500062507813       5.05637770529e-11       121.09       8.52469
1.00012501563       7.81783154852e-11       188.16       4.11399
1.50018752344       1.20402698915e-10       236.76       8.56762
2.00025003125       1.84709506801e-10       286.46       5.61429
2.50031253907       2.82257433516e-10       339.99       1.09014
3.00037504688       4.29639933708e-10       407.53       26.63232
3.50043755469       6.51428877174e-10       527.85       10.91222
4.00050006251       9.83858144356e-10       562.81       121.22389
4.50056257032       1.48013414223e-09       595.92       102.98988
5.00062507813       2.2180574015e-09       656.78       16.15488
5.50068758595       3.31091170098e-09       741.60       27.14923
6.00075009376       4.92295118223e-09       846.67       119.15830
6.50081260158       7.29132694694e-09       895.12       32.16861
7.00087510939       1.07569891145e-08       948.16       62.19633
7.5009376172       1.58080389968e-08       1020.12       2.98934
8.00100012502       2.31402678191e-08       1083.96       146.25160
8.50106263283       3.37413050665e-08       1122.55       145.78946
9.00112514064       4.90070414395e-08       1161.24       74.83380
9.50118764846       7.09019543509e-08       1185.82       48.98300
10.0012501563       1.02178857105e-07       1258.50       6.04039
10.5013126641       1.46678678338e-07       1291.94       11.51222
11.0013751719       2.09737481337e-07       1339.66       47.74915
11.5014376797       2.98736454093e-07       1373.82       2.26208
12.0015001875       4.23841529402e-07       1425.33       10.66805
12.5015626953       5.98993221029e-07       1435.03       73.33180
13.0016252032       8.43224894427e-07       1513.75       1.06174
13.501687711       1.18240986642e-06       1669.39       35.18027
14.0017502188       1.65156542784e-06       1806.08       285.93756
14.5018127266       2.29787623953e-06       2964.11       52.39107
15.0018752344       3.18464185554e-06       3073.00       7.59666
15.5019377422       4.39640482601e-06       3102.72       20.21485
16.00200025       6.04557851961e-06       3488.05       6.24786
16.5020627578       8.28096919958e-06       3568.71       10.67872
17.0021252657       1.12986767927e-05       3687.06       66.11814
17.5021877735       1.53559650378e-05       3716.43       61.30678
18.0022502813       2.07888160688e-05
18.5023127891       2.80340285907e-05
19.0023752969       3.76568839568e-05
19.5024378047       5.03855914792e-05
20.0025003125       6.71539333356e-05
20.5025628204       8.91537596526e-05
21.0026253282       0.000117899233694
21.502687836       0.00015530499193
22.0027503438       0.000203780658548
22.5028128516       0.000266344430911
23.0028753594       0.000346758720984
23.5029378672       0.000449691084463
24.003000375       0.000580903877437
24.5030628829       0.000747476229608
25.0031253907       0.000958061989622
25.5031878985       0.00122318725451
26.0032504063       0.00155559091112
26.5033129141       0.00197061125956
27.0033754219       0.00248662122185
27.5034379297       0.00312551382777
28.0035004376       0.0039132385796
28.5035629454       0.00488038789543
29.0036254532       0.00606283109156
29.503687961       0.00750239126761
30.0037504688       0.00924755799614
30.5038129766       0.011354225897
31.0038754844       0.0138864460169
31.5039379922       0.0169171734818
32.0040005001       0.0205289912043
32.5040630079       0.0248147856059
33.0041255157       0.0298783464691
33.5041880235       0.0358348593071
34.0042505313       0.042811255209
34.5043130391       0.0509463801646
35.0043755469       0.0603909436252
35.5044380548       0.0713072047258
36.0045005626       0.0838683544252
36.5045630704       0.0982575530299
37.0046255782       0.114666585382
37.504688086       0.13329410058
38.0047505938       0.154343409621
38.5048131016       0.178019822878
39.0048756095       0.204527519887
39.5049381173       0.23406595642
40.0050006251       0.266825828178
40.5050631329       0.30298462626
41.0051256407       0.342701836661
41.5051881485       0.386113853779
42.0052506563       0.433328695877
42.5053131641       0.484420627852
43.005375672       0.539424812897
43.5054381798       0.598332128907
44.0055006876       0.661084297021
44.5055631954       0.727569477699
45.0056257032       0.797618493614
45.505688211       0.871001837669
46.0057507188       0.947427618236
46.5058132267       1.0265405819
47.0058757345       1.10792233647
47.5059382423       1.191092874
48.0060007501       1.275513465
48.5060632579       1.36059096227
49.0061257657       1.44568351568
49.5061882735       1.53010765967
50.0062507813       1.61314669386
50.5063132892       1.69406023597
51.006375797       1.7720947857
51.5064383048       1.8464951013
52.0065008126       1.9165161572
52.5065633204       1.98143542402
53.0066258282       2.04056519166
53.506688336       2.09326464426
54.0067508439       2.13895139173
54.5068133517       2.17711216876
55.0068758595       2.20731242667
55.5069383673       2.22920456778
56.0070008751       2.24253460406
56.5070633829       2.24714706192
57.0071258907       2.24298800049
57.5071883985       2.23010606161
58.0072509064       2.20865152296
58.5073134142       2.17887337998
59.007375922       2.14111453593
59.5074384298       2.09580522994
60.0075009376       2.04345487916
60.5075634454       1.98464255121
61.0076259532       1.92000631594
61.5076884611       1.8502317499
62.0077509689       1.77603988234
62.5078134767       1.69817487768
63.0078759845       1.61739174633
63.5079384923       1.53444436379
64.0080010001       1.45007405811
64.5080635079       1.36499899875
65.0081260158       1.2799045871
65.5081885236       1.19543501189
66.0082510314       1.11218609244
66.5083135392       1.03069949161
67.008376047       0.951458338681
67.5084385548       0.874884262795
68.0085010626       0.801335800538
68.5085635704       0.731108107881
69.0086260783       0.664433878185
69.5086885861       0.601485344562
70.0087510939       0.542377227056
70.5088136017       0.487170473041
71.0088761095       0.435876632706
71.5089386173       0.388462710306
72.0090011251       0.344856335461
72.509063633       0.304951106633
73.0091261408       0.268611970289
73.5091886486       0.235680513387
74.0092511564       0.20598006301
74.5093136642       0.17932050434
75.009376172       0.155502746132
75.5094386798       0.134322780637
76.0095011876       0.115575302085
76.5095636955       0.0990568637778
77.0096262033       0.084568568354
77.5096887111       0.0719182984176
78.0097512189       0.0609225055065
78.5098137267       0.0514075840842
79.0098762345       0.0432108639962
79.5099387423       0.0361812596768
80.0100012502       0.0301796174782
80.510063758       0.0250788040204
81.0101262658       0.020763578632
81.5101887736       0.0171302920131
82.0102512814       0.0140864514373
82.5103137892       0.0115501903527
83.010376297       0.00944967736599
83.5104388049       0.00772249649823
84.0105013127       0.00631502745207
84.5105638205       0.00518185159055
85.0106263283       0.00428520649445
85.5106888361       0.00359450943638
86.0107513439       0.00308596793201
86.5108138517       0.0027422937285
87.0108763595       0.00255253516051
87.5109388674       0.00251204171414
88.0110013752       0.00262257383096
88.511063883       0.00289257037677
89.0111263908       0.00333758569272
89.5111888986       0.00398090761779
90.0112514064       0.00485436718583
90.5113139142       0.00599934970685
91.0113764221       0.00746801548077
91.5114389299       0.00932473629755
92.0115014377       0.0116477509837
92.5115639455       0.0145310394021
93.0116264533       0.0180864093528
93.5116889611       0.0224457846312
94.0117514689       0.0277636749857
94.5118139767       0.0342197998244
95.0118764846       0.042021827259
95.5119389924       0.0514081785048
96.0120015002       0.0626508349303
96.512064008       0.0760580713981
97.0121265158       0.0919770252879
97.5121890236       0.110795996176
98.0122515314       0.132946357093
98.5123140393       0.15890394522
99.0123765471       0.189189788559
99.5124390549       0.224370016305
100.012501563       0.265054795201
100.512564071       0.311896133014
101.012626578       0.365584394232
101.512689086       0.426843382988
102.012751594       0.496423864835
102.512814102       0.575095422811
103.01287661       0.663636574649
103.512939117       0.76282311714
104.013001625       0.873414710222
104.513064133       0.996139766946
105.013126641       1.13167877502
105.513189149       1.28064623981
106.013251656       1.44357150598
106.513314164       1.62087878282
107.013376672       1.81286676508
107.51343918       2.01968830313
108.013501688       2.24133063171
108.513564196       2.47759671159
109.013626703       2.72808827066
109.513689211       2.99219114792
110.013751719       3.26906354228
110.513814227       3.55762774741
111.013876735       3.85656591128
111.513939242       4.16432029581
112.01400175       4.47909842651
112.514064258       4.79888341715
113.014126766       5.12144963093
113.514189274       5.44438370161
114.014251781       5.76511078849
114.514314289       6.08092578299
115.014376797       6.38902902733
115.514439305       6.68656595245
116.014501813       6.97066989906
116.514564321       7.23850725798
117.014626828       7.48732395965
117.514689336       7.71449226172
118.014751844       7.91755673326
118.514814352       8.09427831614
119.01487686       8.24267536134
119.514939367       8.36106059015
120.015001875       8.44807301717
120.515064383       8.50270399077
121.015126891       8.52431665456
121.515189399       8.51265830484
122.015251906       8.46786530868
122.515314414       8.39046044893
123.015376922       8.28134276835
123.51543943       8.14177018874
124.015501938       7.97333537493
124.515564446       7.77793549094
125.015626953       7.55773665127
125.515689461       7.3151339981
126.015751969       7.05270843185
126.515814477       6.77318108541
127.015876985       6.47936666017
127.515939492       6.17412673408
128.016002       5.86032411132
128.516064508       5.54077921081
129.016127016       5.21822939177
129.516189524       4.89529199243
130.016252032       4.57443171911
130.516314539       4.25793287162
131.016377047       3.94787673469
131.516439555       3.64612430747
132.016502063       3.35430439183
132.516564571       3.07380691757
133.016627078       2.80578125502
133.516689586       2.5511391542
134.016752094       2.31056185889
134.516814602       2.0845108733
135.01687711       1.87324181082
135.516939617       1.67682072689
136.017002125       1.49514233103
136.517064633       1.32794948469
137.017127141       1.17485341944
137.517189649       1.03535415164
138.017252157       0.908860622119
138.517314664       0.794710150153
139.017377172       0.69218685615
139.51743968       0.600538775693
140.017502188       0.518993455031
140.517564696       0.446771883523
141.017627203       0.383100679616
141.517689711       0.327222502378
142.017752219       0.27840470938
142.517814727       0.2359463231
143.017877235       0.199183401749
143.517939742       0.167492936466
144.01800225       0.140295415545
144.518064758       0.117056208178
145.018127266       0.0972859258338
145.518189774       0.0805399196706
146.018252282       0.0664170680958
146.518314789       0.054558000676
147.018377297       0.0446428938999
147.518439805       0.0363889616546
148.018502313       0.0295477494186
148.518564821       0.0239023267813
149.018627328       0.0192644585359
149.518689836       0.0154718207123
150.018752344       0.0123853148971
150.518814852       0.00988652228477
151.01887736       0.00787532829865
151.518939867       0.0062677394114
152.019002375       0.00499390601095
152.519064883       0.00399635877307
153.019127391       0.00322846094475
153.519189899       0.00265307510686
154.019252407       0.00224144023787
154.519314914       0.00197225309478
155.019377422       0.00183094690475
155.51943993       0.00180915995741
156.019502438       0.00190438674143
156.519564946       0.00211980461936
157.019627453       0.00246426952789
157.519689961       0.00295247467838
158.019752469       0.00360526657741
158.519814977       0.00445011275781
159.019877485       0.00552171529057
159.519939992       0.00686276332976
160.0200025       0.0085248165355
160.520065008       0.0105693091493
161.020127516       0.0130686617085
161.520190024       0.0161074838516
162.020252532       0.0197838473863
162.520315039       0.024210603794
163.020377547       0.0295167147069
163.520440055       0.035848557725
164.020502563       0.0433711633974
164.520565071       0.0522693324964
165.020627578       0.0627485761004
165.520690086       0.0750358148052
166.020752594       0.0893797679256
166.520815102       0.106050959247
167.02087761       0.125341263125
167.520940118       0.147562913974
168.021002625       0.173046903818
168.521065133       0.202140697045
169.021127641       0.235205199125
169.521190149       0.272610927156
170.021252657       0.314733344794
170.521315164       0.361947342603
171.021377672       0.414620866904
171.52144018       0.47310772567
172.021502688       0.537739628427
172.521565196       0.608817547889
173.021627703       0.68660252336
173.521690211       0.771306058784
174.021752719       0.863080300583
174.521815227       0.962008210835
175.021877735       1.06809397843
175.521940243       1.18125393334
176.02200275       1.30130824565
176.522065258       1.42797369979
177.022127766       1.56085783528
177.522190274       1.69945473607
178.022252782       1.8431427317
178.522315289       1.99118424382
179.022377797       2.14272797208
179.522440305       2.2968135635
180.022502813       2.45237885112
180.522565321       2.60826968178
181.022627828       2.76325228121
181.522690336       2.9160280297
182.022752844       3.06525044551
182.522815352       3.20954409876
183.02287786       3.3475251088
183.522940368       3.47782281526
184.023002875       3.59910216026
184.523065383       3.71008627859
185.023127891       3.80957876661
185.523190399       3.89648508951
186.023252907       3.96983259333
186.523315414       4.0287886109
187.023377922       4.0726761908
187.52344043       4.10098703413
188.023502938       4.11339129344
188.523565446       4.10974396988
189.023627953       4.09008773492
189.523690461       4.05465210012
190.023752969       4.00384895751
190.523815477       3.93826461193
191.023877985       3.85864852086
191.523940493       3.76589904448
192.024003       3.66104658469
192.524065508       3.545234556
193.024128016       3.41969867934
193.524190524       3.28574512245
194.024253032       3.14472802633
194.524315539       2.99802695533
195.024378047       2.84702479102
195.524440555       2.6930865572
196.024503063       2.53753961688
196.524565571       2.38165562523
197.024628079       2.22663455604
197.524690586       2.07359104774
198.024753094       1.92354323971
198.524815602       1.7774041945
199.02487811       1.63597592807
199.524940618       1.49994600197
200.025003125       1.36988656904
200.525065633       1.24625571069
201.025128141       1.12940085931
201.525190649       1.01956406543
202.025253157       0.91688884516
202.525315664       0.821428330576
203.025378172       0.733154441789
203.52544068       0.651967805235
204.025503188       0.577708155984
204.525565696       0.51016498195
205.025628204       0.449088193023
205.525690711       0.394198626973
206.025753219       0.3451982349
206.525815727       0.301779820648
207.025878235       0.263636239519
207.525940743       0.230468990651
208.02600325       0.201996163557
208.526065758       0.177959721588
209.026128266       0.158132123007
209.526190774       0.142322293349
210.026253282       0.130380970716
210.526315789       0.122205448494
211.026378297       0.117743737903
211.526440805       0.116998166209
212.026503313       0.120028415744
212.526565821       0.126953994895
213.026628329       0.137956115732
213.526690836       0.153278934728
214.026753344       0.173230094404
214.526815852       0.198180485432
215.02687836       0.228563132266
215.526940868       0.264871091612
216.027003375       0.307654243354
216.527065883       0.357514848942
217.027128391       0.415101753737
217.527190899       0.481103118338
218.027253407       0.556237580174
218.527315914       0.641243771066
219.027378422       0.736868149342
219.52744093       0.843851146219
220.027503438       0.962911675154
220.527565946       1.09473010876
221.027628454       1.23992988955
221.527690961       1.3990580063
222.027753469       1.5725646356
222.527815977       1.76078231517
223.027878485       1.96390507971
223.527940993       2.18196804798
224.0280035       2.41482799915
224.528066008       2.66214551322
225.028128516       2.92336927304
225.528191024       3.19772313023
226.028253532       3.48419652324
226.52831604       3.7815388005
227.028378547       4.08825794487
227.528441055       4.40262411711
228.028503563       4.7226783369
228.528566071       5.04624650185
229.028628579       5.3709588107
229.528691086       5.69427450977
230.028753594       6.01351172714
230.528816102       6.3258820005
231.02887861       6.62852894899
231.528941118       6.91857039199
232.029003625       7.19314308375
232.529066133       7.44944911919
233.029128641       7.6848029762
233.529191149       7.89667809955
234.029253657       8.08275190292
234.529316165       8.24094807192
235.029378672       8.36947509253
235.52944118       8.46686000614
236.029503688       8.53197650196
236.529566196       8.564066598
237.029628704       8.56275532668
237.529691211       8.52805802753
238.029753719       8.46038004833
238.529816227       8.36050886309
239.029878735       8.22959882096
239.529941243       8.06914893925
240.03000375       7.88097433776
240.530066258       7.66717207554
241.030128766       7.43008228892
241.530191274       7.17224563667
242.030253782       6.89635813263
242.53031629       6.60522448449
243.030378797       6.3017110612
243.530441305       5.98869958029
244.030503813       5.66904254344
244.530566321       5.34552135718
245.030628829       5.02080795939
245.530691336       4.69743063782
246.030753844       4.37774457796
246.530816352       4.0639075218
247.03087886       3.75786076068
247.530941368       3.46131553093
248.031003875       3.1757447351
248.531066383       2.90237977814
249.031128891       2.64221219165
249.531191399       2.39599962119
250.031253907       2.16427567538
250.531316415       1.94736308036
251.031378922       1.74538954964
251.53144143       1.55830576724
252.031503938       1.38590488828
252.531566446       1.22784298535
253.031628954       1.08365990747
253.531691461       0.952800068543
254.031753969       0.834632741463
254.531816477       0.728471498919
255.031878985       0.633592509781
255.531941493       0.549251468167
256.032004001       0.474698998292
256.532066508       0.409194440176
257.032129016       0.352017977344
257.532191524       0.302481116706
258.032254032       0.259935571876
258.53231654       0.223780633844
259.032379047       0.19346913694
259.532441555       0.168512143677
260.032504063       0.148482479686
260.532566571       0.133017250216
261.032629079       0.121819463496
261.532691586       0.114658874434
262.032754094       0.111372145901
262.532816602       0.111862405178
263.03287911       0.116098251295
263.532941618       0.12411224602
264.033004126       0.135998898344
264.533066633       0.151912130531
265.033129141       0.172062194197
265.533191649       0.196711988381
266.033254157       0.226172719135
266.533316665       0.260798832412
267.033379172       0.300982149801
267.53344168       0.347145140255
268.033504188       0.399733270853
268.533566696       0.45920639587
269.033629204       0.526029165987
269.533691711       0.600660467964
270.033754219       0.68354193906
270.533816727       0.775085638953
