#  x                 y             frequency           intensity
0.0       9.65046294994e-08       45.89       1.34798
0.500062507813       1.37854366536e-07       127.77       0.68053
1.00012501563       1.96153480761e-07       197.44       5.04379
1.50018752344       2.78019094364e-07       230.04       119.06120
2.00025003125       3.92515076339e-07       271.81       15.62682
2.50031253907       5.52002663937e-07       321.01       30.81491
3.00037504688       7.73266361082e-07       372.92       2.57616
3.50043755469       1.07899684516e-06       409.48       3.04597
4.00050006251       1.49973437169e-06       497.22       22.22043
4.50056257032       2.07640290619e-06       584.47       50.10423
5.00062507813       2.86359782662e-06       630.51       69.30632
5.50068758595       3.93382950348e-06       743.08       73.77967
6.00075009376       5.38297242674e-06       852.51       93.89721
6.50081260158       7.33722589712e-06       878.69       38.82983
7.00087510939       9.96195873105e-06       949.33       8.63700
7.5009376172       1.34728879924e-05       1048.61       71.87849
8.00100012502       1.8150131389e-05       1064.07       82.09728
8.50106263283       2.4355775384e-05       1125.24       16.05728
9.00112514064       3.25557166678e-05       1150.83       255.44907
9.50118764846       4.33466633724e-05       1211.69       4.93575
10.0012501563       5.7489323614e-05       1252.22       25.45503
10.5013126641       7.5948961164e-05       1285.69       1.80404
11.0013751719       9.9944658828e-05       1316.29       8.18702
11.5014376797       0.000131008795787       1362.06       13.06712
12.0015001875       0.000171058410644       1406.53       35.01160
12.5015626953       0.000222480280492       1465.47       9.14510
13.0016252032       0.000288231689377       1510.51       2.81288
13.501687711       0.000371958976519       1642.45       43.10632
14.0017502188       0.000478136032855       1813.50       288.96590
14.5018127266       0.000612224939002       2925.34       38.26112
15.0018752344       0.000780860891761       3023.99       32.47906
15.5019377422       0.000992063430965       3069.73       31.26439
16.00200025       0.00125547573357       3501.73       2.67642
16.5020627578       0.00158263336625       3582.84       10.74694
17.0021252657       0.00198726335985       3725.54       65.84170
17.5021877735       0.00248561376893       3823.98       42.20131
18.0022502813       0.00309681298759
18.5023127891       0.0038432569954
19.0023752969       0.00475102139322
19.5024378047       0.00585029355561
20.0025003125       0.00717581848019
20.5025628204       0.00876734997058
21.0026253282       0.010670096678
21.502687836       0.0129351502892
22.0027503438       0.0156198808445
22.5028128516       0.0187882818728
23.0028753594       0.0225112458296
23.5029378672       0.0268667483289
24.003000375       0.0319399179855
24.5030628829       0.0378229674614
25.0031253907       0.0446149606809
25.5031878985       0.0524213912746
26.0032504063       0.061353548277
26.5033129141       0.0715276470522
27.0033754219       0.0830637064675
27.5034379297       0.0960841575513
28.0035004376       0.1107121743
28.5035629454       0.127069723939
29.0036254532       0.145275341749
29.503687961       0.165441644399
30.0037504688       0.18767260548
30.5038129766       0.212060627265
31.0038754844       0.238683453486
31.5039379922       0.267600978576
32.0040005001       0.2988520192
32.5040630079       0.332451123327
33.0041255157       0.368385500287
33.5041880235       0.406612161698
34.0042505313       0.447055367318
34.5043130391       0.489604471523
35.0043755469       0.53411226471
35.5044380548       0.580393899379
36.0045005626       0.628226482662
36.5045630704       0.677349405696
37.0046255782       0.727465465548
37.504688086       0.778242817616
38.0047505938       0.82931777598
38.5048131016       0.880298456568
39.0048756095       0.930769233848
39.5049381173       0.980295956944
40.0050006251       1.02843184628
40.5050631329       1.07472396814
41.0051256407       1.11872016273
41.5051881485       1.15997628229
42.0052506563       1.1980635804
42.5053131641       1.23257608275
43.005375672       1.26313776341
43.5054381798       1.28940935002
44.0055006876       1.31109458596
44.5055631954       1.32794578835
45.0056257032       1.33976855583
45.505688211       1.34642550132
46.0057507188       1.34783890938
46.5058132267       1.34399224636
47.0058757345       1.33493048234
47.5059382423       1.32075921606
48.0060007501       1.30164262662
48.5060632579       1.27780030757
49.0061257657       1.24950306871
49.5061882735       1.21706781781
50.0062507813       1.18085165742
50.5063132892       1.14124535045
51.006375797       1.0986663215
51.5064383048       1.05355136841
52.0065008126       1.00634926137
52.5065633204       0.957513402973
53.0066258282       0.907494714819
53.506688336       0.856734902589
54.0067508439       0.805660234846
54.5068133517       0.754675950086
55.0068758595       0.70416138387
55.5069383673       0.65446588354
56.0070008751       0.605905553079
56.5070633829       0.558760846092
57.0071258907       0.513275001333
57.5071883985       0.469653293552
58.0072509064       0.428063053131
58.5073134142       0.388634391602
59.007375922       0.35146155697
59.5074384298       0.316604832941
60.0075009376       0.284092889791
60.5075634454       0.253925491547
61.0076259532       0.226076464169
61.5076884611       0.200496832335
62.0077509689       0.177118037664
62.5078134767       0.15585515853
63.0078759845       0.136610060459
63.5079384923       0.119274416007
64.0080010001       0.103732543568
64.5080635079       0.0898640253498
65.0081260158       0.0775460753173
65.5081885236       0.0666556380321
66.0082510314       0.0570712086488
66.5083135392       0.0486743727139
67.008376047       0.0413510716813
67.5084385548       0.034992606147
68.0085010626       0.0294963936659
68.5085635704       0.024766501684
69.0086260783       0.0207139786427
69.5086885861       0.0172570077948
70.0087510939       0.0143209088128
70.5088136017       0.0118380120195
71.0088761095       0.00974742914234
71.5089386173       0.00799474305108
72.0090011251       0.00653163709481
72.509063633       0.00531548255302
73.0091261408       0.00430890045629
73.5091886486       0.0034793117224
74.0092511564       0.0027984872724
74.5093136642       0.00224210760524
75.009376172       0.00178933927181
75.5094386798       0.00142243383395
76.0095011876       0.00112635324489
76.5095636955       0.000888424156204
77.0096262033       0.000698022443312
77.5096887111       0.000546288240928
78.0097512189       0.000425870979223
78.5098137267       0.000330703293497
79.0098762345       0.000255802225858
79.5099387423       0.000197095825339
80.0100012502       0.000151273061924
80.510063758       0.000115654879202
81.0101262658       8.80842003004e-05
81.5101887736       6.68327544705e-05
82.0102512814       5.05226913307e-05
82.5103137892       3.80610825619e-05
83.010376297       2.85855652224e-05
83.5104388049       2.14195473278e-05
84.0105013127       1.60355674193e-05
84.5105638205       1.20255698096e-05
85.0106263283       9.07702193049e-06
85.5106888361       6.95395694701e-06
86.0107513439       5.48217196672e-06
86.5108138517       4.53794908931e-06
87.0108763595       4.03979333014e-06
87.5109388674       3.94279877937e-06
88.0110013752       4.23536333442e-06
88.511063883       4.93807434934e-06
89.0111263908       6.10468412715e-06
89.5111888986       7.82518693412e-06
90.0112514064       1.02310996865e-05
90.5113139142       1.35031380514e-05
91.0113764221       1.78815695814e-05
91.5114389299       2.36796165108e-05
92.0115014377       3.13003733914e-05
92.5115639455       4.12577987453e-05
93.0116264533       5.42024346242e-05
93.5116889611       7.09526019451e-05
94.0117514689       9.25319104239e-05
94.5118139767       0.000120214006633
95.0118764846       0.000155575557915
95.5119389924       0.000200558528265
96.0120015002       0.000257542838365
96.512064008       0.000329430508142
97.0121265158       0.000419742347902
97.5121890236       0.000532728183617
98.0122515314       0.000673491463123
98.5123140393       0.000848128882079
99.0123765471       0.00106388538085
99.5124390549       0.00132932448599
100.012501563       0.0016545134937
100.512564071       0.00205122241053
101.012626578       0.00253313487468
101.512689086       0.00311606847881
102.012751594       0.00381820100666
102.512814102       0.00466029809092
103.01287661       0.00566593671479
103.512939117       0.00686171783815
104.013001625       0.00827746026347
104.513064133       0.00994636670432
105.013126641       0.0119051519307
105.513189149       0.0141941218934
106.013251656       0.0168571919381
106.513314164       0.0199418316723
107.013376672       0.023498923822
107.51343918       0.0275825245674
108.013501688       0.0322495134608
108.513564196       0.0375591221526
109.013626703       0.0435723328386
109.513689211       0.0503511396304
110.013751719       0.0579576689506
110.513814227       0.0664531585644
111.013876735       0.07589679894
111.513939242       0.0863444452228
112.01400175       0.0978472131143
112.514064258       0.110449977243
113.014126766       0.124189796045
113.514189274       0.139094292545
114.014251781       0.155180025554
114.514314289       0.172450890425
115.014376797       0.190896592443
115.514439305       0.21049123888
116.014501813       0.23119209756
116.514564321       0.252938570207
117.014626828       0.275651427757
117.514689336       0.299232352049
118.014751844       0.323563823855
118.514814352       0.348509391016
119.01487686       0.373914342599
119.514939367       0.399606805678
120.015001875       0.425399270652
120.515064383       0.451090539411
121.015126891       0.47646807831
121.515189399       0.501310745355
122.015251906       0.525391848585
122.515314414       0.548482480868
123.015376922       0.570355065637
123.51543943       0.590787038934
124.015501938       0.609564585906
124.515564446       0.626486344994
125.015626953       0.641366990616
125.515689461       0.654040605571
126.015751969       0.664363757491
126.515814477       0.672218199689
127.015876985       0.677513125304
127.515939492       0.680186914683
128.016002       0.680208328991
128.516064508       0.677577117705
129.016127016       0.672324023496
129.516189524       0.664510184354
130.016252032       0.654225949207
130.516314539       0.641589139134
131.016377047       0.626742800936
131.516439555       0.609852512954
132.016502063       0.591103314056
132.516564571       0.570696335337
133.016627078       0.548845220122
133.516689586       0.52577242103
134.016752094       0.5017054633
134.516814602       0.4768732612
135.01687711       0.451502569484
135.516939617       0.425814644651
136.017002125       0.400022181644
136.517064633       0.374326580951
137.017127141       0.348915589323
137.517189649       0.323961344917
138.017252157       0.299618845071
138.517314664       0.276024842651
139.017377172       0.253297165174
139.51743968       0.231534440319
140.017502188       0.210816202019
140.517564696       0.19120334349
141.017627203       0.172738877327
141.517689711       0.155448958302
142.017752219       0.139344121721
142.517814727       0.12442068907
143.017877235       0.110662293085
143.517939742       0.0980414761796
144.01800225       0.0865213190999
144.518064758       0.076057060587
145.018127266       0.0665976734654
145.518189774       0.0580873676736
146.018252282       0.0504669961369
146.518314789       0.0436753448094
147.018377297       0.0376502935146
147.518439805       0.0323298392259
148.018502313       0.0276529780311
148.518564821       0.0235604461148
149.018627328       0.0199953236185
149.518689836       0.0169035081485
150.018752344       0.0142340670082
150.518814852       0.0119394789314
151.01887736       0.00997577724048
151.518939867       0.00830260697896
152.019002375       0.00688320874899
152.519064883       0.00568434178092
153.019127391       0.00467615824542
153.519189899       0.00383204006327
154.019252407       0.00312840853995
154.519314914       0.00254451611648
155.019377422       0.00206222844162
155.51943993       0.00166580388474
156.019502438       0.00134167656529
156.519564946       0.00107824800927
157.019627453       0.000865691682617
157.519689961       0.000695773916455
158.019752469       0.000561694143367
158.519814977       0.000457946916183
159.019877485       0.000380207884194
159.519939992       0.000325245755981
160.0200025       0.00029086227873
160.520065008       0.000275862403852
161.020127516       0.000280057077556
161.520190024       0.00030430147979
162.020252532       0.000350572019628
162.520315039       0.000422085960398
163.020377547       0.000523468170579
163.520440055       0.000660970149202
164.020502563       0.000842747124596
164.520565071       0.0010791996345
165.020627578       0.00138338651898
165.520690086       0.00177151664379
166.020752594       0.00226352686154
166.520815102       0.00288375364685
167.02087761       0.00366170543598
167.520940118       0.00463294188609
168.021002625       0.00584006496294
168.521065133       0.00733382488915
169.021127641       0.00917434145966
169.521190149       0.0114324379886
170.021252657       0.0141910811344
170.521315164       0.0175469150184
171.021377672       0.0216118723993
171.52144018       0.0265148392007
172.021502688       0.0324033414849
172.521565196       0.0394452161125
173.021627703       0.0478302179995
173.521690211       0.0577715082779
174.021752719       0.0695069590712
174.521815227       0.0833002023415
175.021877735       0.0994413427378
175.521940243       0.118247248033
176.02200275       0.140061326051
176.522065258       0.165252694468
177.022127766       0.194214650082
177.522190274       0.227362347511
178.022252782       0.265129604363
178.522315289       0.307964761063
179.022377797       0.356325539033
179.522440305       0.410672860961
180.022502813       0.471463621513
180.522565321       0.539142425787
181.022627828       0.614132345743
181.522690336       0.696824781121
182.022752844       0.787568550106
182.522815352       0.886658375201
183.02287786       0.994322970054
183.522940368       1.11071297191
184.023002875       1.23588900035
184.523065383       1.36981015427
185.023127891       1.51232328397
185.523190399       1.66315339219
186.023252907       1.82189552511
186.523315414       1.98800851125
187.023377922       2.16081089061
187.52344043       2.33947934912
188.023502938       2.52304993351
188.523565446       2.71042226947
189.023627953       2.90036694327
189.523690461       3.09153613397
190.023752969       3.28247750345
190.523815477       3.47165126612
191.023877985       3.65745027288
191.523940493       3.8382228578
192.024003       4.01229811442
192.524065508       4.17801319529
193.024128016       4.33374216605
193.524190524       4.4779258986
194.024253032       4.60910245711
194.524315539       4.7259374205
195.024378047       4.82725359475
195.524440555       4.91205959967
196.024503063       4.97957686723
196.524565571       5.02926466018
197.024628079       5.06084280879
197.524690586       5.07431196709
198.024753094       5.06997130278
198.524815602       5.04843365366
199.02487811       5.01063830167
199.524940618       4.95786162754
200.025003125       4.89172600933
200.525065633       4.81420741013
201.025128141       4.72764215834
201.525190649       4.63473345324
202.025253157       4.53855812434
202.525315664       4.44257413155
203.025378172       4.35062921269
203.52544068       4.26697096424
204.025503188       4.19625848037
204.525565696       4.14357547779
205.025628204       4.11444460287
205.525690711       4.11484235872
206.025753219       4.15121381183
206.525815727       4.23048594919
207.025878235       4.36007826863
207.525940743       4.5479089101
208.02600325       4.80239438737
208.526065758       5.13244077188
209.026128266       5.54742402882
209.526190774       6.05715712377
210.026253282       6.67184152101
210.526315789       7.40200079336
211.026378297       8.25839426982
211.526440805       9.25190896824
212.026503313       10.3934285001
212.526565821       11.6936781938
213.026628329       13.163046356
213.526690836       14.8113823701
214.026753344       16.6477731976
214.526815852       18.6803007848
215.02687836       20.9157838564
215.526940868       23.3595085665
216.027003375       26.0149534395
216.527065883       28.8835149363
217.027128391       31.9642407708
217.527190899       35.2535787487
218.027253407       38.7451493585
218.527315914       42.4295505724
219.027378422       46.294203289
219.52744093       50.3232455371
220.027503438       54.4974829459
220.527565946       58.7944020697
221.027628454       63.1882519345
221.527690961       67.6501976737
222.027753469       72.1485483683
222.527815977       76.6490592487
223.027878485       81.1153063083
223.527940993       85.5091291844
224.0280035       89.7911359615
224.528066008       93.9212614118
225.028128516       97.8593682058
225.528191024       101.565878866
226.028253532       105.002424784
226.52831604       108.132497534
227.028378547       110.922087069
227.528441055       113.340291175
228.028503563       115.359880868
228.528566071       116.957807205
229.028628579       118.115636242
229.528691086       118.819900593
230.028753594       119.062358138
230.528816102       118.840150881
231.02887861       118.155859611
231.528941118       117.017452857
232.029003625       115.438131515
232.529066133       113.436073344
233.029128641       111.034084211
233.529191149       108.259165441
234.029253657       105.142008713
234.529316165       101.716431716
235.029378672       98.0187690437
235.52944118       94.0872336494
236.029503688       89.9612644928
236.529566196       85.6808758463
237.029628704       81.286023109
237.529691211       76.8159989153
238.029753719       72.3088718958
238.529816227       67.8009787183
239.029878735       63.3264780664
239.529941243       58.9169730918
240.03000375       54.6012066864
240.530066258       50.4048317293
241.030128766       46.3502563569
241.530191274       42.4565623392
242.030253782       38.7394928835
242.53031629       35.2115046642
243.030378797       31.8818776343
243.530441305       28.7568752241
244.030503813       25.83994688
244.530566321       23.1319645405
245.030628829       20.6314845672
245.530691336       18.3350268224
246.030753844       16.2373629809
246.530816352       14.3318067419
247.03087886       12.6104993328
247.530941368       11.0646845273
248.031003875       9.68496829148
248.531066383       8.46155909858
249.031128891       7.38448586774
249.531191399       6.44379136641
250.031253907       5.62969974232
250.531316415       4.93275760069
251.031378922       4.34394870526
251.53144143       3.85478294899
252.031503938       3.45736071117
252.531566446       3.14441409313
253.031628954       2.90932681086
253.531691461       2.74613472836
254.031753969       2.64950914936
254.531816477       2.61472505925
255.031878985       2.63761653463
255.531941493       2.71452152564
256.032004001       2.84221817597
256.532066508       3.01785478606
257.032129016       3.23887545257
257.532191524       3.50294333763
258.032254032       3.80786343586
258.53231654       4.15150661922
259.032379047       4.53173664633
259.532441555       4.94634172441
260.032504063       5.39297210409
260.532566571       5.86908506721
261.032629079       6.37189853257
261.532691586       6.89835434949
262.032754094       7.44509217341
262.532816602       8.00843461884
263.03287911       8.58438416254
263.532941618       9.16863202669
264.033004126       9.75657900839
264.533066633       10.3433679458
265.033129141       10.9239272254
265.533191649       11.4930244507
266.033254157       12.0453291133
266.533316665       12.5754828491
267.033379172       13.0781756261
267.53344168       13.548226015
