#  x                 y             frequency           intensity
0.0       2.7156286452e-11       55.51       0.77392
0.500062507813       4.18202654809e-11       126.34       0.84542
1.00012501563       6.41514242575e-11       192.26       98.28213
1.50018752344       9.80232128756e-11       210.13       20.36772
2.00025003125       1.49195140051e-10       243.24       37.20062
2.50031253907       2.26195277123e-10       322.55       6.06453
3.00037504688       3.41598143752e-10       373.93       1.91795
3.50043755469       5.13866829254e-10       438.62       15.57374
4.00050006251       7.69996550526e-10       493.77       7.60435
4.50056257032       1.14929121714e-09       576.81       49.90181
5.00062507813       1.70873418912e-09       642.18       73.52762
5.50068758595       2.53059149031e-09       725.88       63.53794
6.00075009376       3.7331263616e-09       827.72       156.54898
6.50081260158       5.48562923115e-09       867.76       5.46455
7.00087510939       8.02940425566e-09       945.64       6.64231
7.5009376172       1.17069377754e-08       1052.05       39.20321
8.00100012502       1.7002250447e-08       1063.74       68.85722
8.50106263283       2.45964608324e-08       1123.58       176.58366
9.00112514064       3.54439362191e-08       1172.53       109.68816
9.50118764846       5.08761670301e-08       1208.86       10.52113
10.0012501563       7.27427868923e-08       1260.74       38.29968
10.5013126641       1.03602109788e-07       1271.96       2.70074
11.0013751719       1.46977337774e-07       1323.68       8.59909
11.5014376797       2.07699411835e-07       1359.55       15.80179
12.0015001875       2.92363579007e-07       1406.51       21.69460
12.5015626953       4.09934420462e-07       1450.67       1.49540
13.0016252032       5.72543666315e-07       1511.31       3.73528
13.501687711       7.96537004825e-07       1627.98       77.17745
14.0017502188       1.10384072193e-06       1815.33       296.66774
14.5018127266       1.52373688138e-06       2911.20       36.69970
15.0018752344       2.09515742576e-06       3016.21       37.54794
15.5019377422       2.86963363735e-06       3067.86       32.28477
16.00200025       3.91506846597e-06       3516.59       3.09419
16.5020627578       5.32053594027e-06       3604.11       14.60091
17.0021252657       7.20235484039e-06       3722.71       67.11517
17.5021877735       9.71173357858e-06       3822.54       40.19821
18.0022502813       1.30443402587e-05
18.5023127891       1.74522164468e-05
19.0023752969       2.32585253232e-05
19.5024378047       3.08757043129e-05
20.0025003125       4.08276782852e-05
20.5025628204       5.37768807146e-05
21.0026253282       7.05569248811e-05
21.502687836       9.22118625366e-05
22.0027503438       0.000120043059854
22.5028128516       0.000155664805233
23.0028753594       0.000201069834883
23.5029378672       0.000258706012993
24.003000375       0.000331565425578
24.5030628829       0.000423287131219
25.0031253907       0.000538274747466
25.5031878985       0.000681829927062
26.0032504063       0.00086030258148
26.5033129141       0.00108125842802
27.0033754219       0.00135366405919
27.5034379297       0.00168808924819
28.0035004376       0.00209692560266
28.5035629454       0.00259461995458
29.0036254532       0.00319792002353
29.503687961       0.00392612891669
30.0037504688       0.00480136393829
30.5038129766       0.00584881399043
31.0038754844       0.00709698857649
31.5039379922       0.00857795010175
32.0040005001       0.0103275198412
32.5040630079       0.0123854466634
33.0041255157       0.0147955264188
33.5041880235       0.0176056588909
34.0042505313       0.020867828435
34.5043130391       0.0246379939842
35.0043755469       0.0289758740465
35.5044380548       0.0339446127492
36.0045005626       0.0396103139627
36.5045630704       0.0460414321334
37.0046255782       0.0533080107093
37.504688086       0.0614807619973
38.0047505938       0.0706299859354
38.5048131016       0.0808243295916
39.0048756095       0.0921293941426
39.5049381173       0.10460620156
40.0050006251       0.118309539116
40.5050631329       0.13328620593
41.0051256407       0.149573191971
41.5051881485       0.167195825908
42.0052506563       0.186165933792
42.5053131641       0.206480055444
43.005375672       0.228117769374
43.5054381798       0.251040179799
44.0055006876       0.275188620622
44.5055631954       0.300483630864
45.0056257032       0.326824253883
45.505688211       0.354087708582
46.0057507188       0.382129474758
46.5058132267       0.410783826741
47.0058757345       0.439864839678
47.5059382423       0.469167881399
48.0060007501       0.498471590109
48.5060632579       0.527540324422
49.0061257657       0.556127058092
49.5061882735       0.58397667748
50.0062507813       0.610829626006
50.5063132892       0.636425826998
51.006375797       0.660508805
51.5064383048       0.682829916238
52.0065008126       0.703152592019
52.5065633204       0.721256494615
53.0066258282       0.736941484048
53.506688336       0.750031296177
54.0067508439       0.760376837722
54.5068133517       0.767859012146
55.0068758595       0.772391001531
55.5069383673       0.773919943325
56.0070008751       0.772427956684
56.5070633829       0.767932490542
57.0071258907       0.760485983944
57.5071883985       0.750174847876
58.0072509064       0.737117796246
58.5073134142       0.721463571073
59.007375922       0.703388122844
59.5074384298       0.683091320731
60.0075009376       0.660793278641
60.5075634454       0.636730391369
61.0076259532       0.611151180414
61.5076884611       0.584312051047
62.0077509689       0.55647306108
62.5078134767       0.527893797677
63.0078759845       0.498829451563
63.5079384923       0.469527168726
64.0080010001       0.440222748334
64.5080635079       0.411137742797
65.0081260158       0.382477002079
65.5081885236       0.354426690125
66.0082510314       0.327152787012
66.5083135392       0.300800076774
67.008376047       0.275491608105
67.5084385548       0.251328603703
68.0085010626       0.228390784236
68.5085635704       0.206737064847
69.0086260783       0.18640657607
69.5086885861       0.167419956849
70.0087510939       0.1497808652
70.5088136017       0.133477651636
71.0088761095       0.11848514176
71.5089386173       0.104766477177
72.0090011251       0.0922749677658
72.509063633       0.0809559133006
73.0091261408       0.0707483579217
73.5091886486       0.0615867469927
74.0092511564       0.0534024620329
74.5093136642       0.0461252155446
75.009376172       0.0396842934367
75.5094386798       0.0340096382276
76.0095011876       0.0290327711604
76.5095636955       0.0246875556974
77.0096262033       0.0209108085172
77.5096887111       0.017642767099
78.0097512189       0.0148274252435
78.5098137267       0.0124127494853
79.0098762345       0.0103507903358
79.5099387423       0.00859770273465
80.0100012502       0.00711369004129
80.510063758       0.00586288545657
81.0101262658       0.00481318399923
81.5101887736       0.00393603715718
82.0102512814       0.00320622115926
82.5103137892       0.00260158853846
83.010376297       0.00210281134104
83.5104388049       0.0016931230272
84.0105013127       0.00135806484965
84.5105638205       0.00108524131794
85.0106263283       0.000864088281729
85.5106888361       0.00068565621201
86.0107513439       0.000542410432077
86.5108138517       0.00042804935478
87.0108763595       0.000337341215447
87.5109388674       0.000265979346108
88.0110013752       0.000210455707317
88.511063883       0.000167952168773
89.0111263908       0.00013624889743
89.5111888986       0.000113649159944
90.0112514064       9.89198628324e-05
90.5113139142       9.12472268422e-05
91.0113764221       9.02071100205e-05
91.5114389299       9.57496459821e-05
92.0115014377       0.000108198039054
92.5115639455       0.000128261546133
93.0116264533       0.00015706286601
93.5116889611       0.00019618034039
94.0117514689       0.000247705536443
94.5118139767       0.000314316917591
95.0118764846       0.000399370405992
95.5119389924       0.000507007684733
96.0120015002       0.000642283067567
96.512064008       0.000811309665935
97.0121265158       0.00102142539376
97.5121890236       0.00128137905703
98.0122515314       0.00160153636502
98.5123140393       0.00199410516273
99.0123765471       0.00247337851041
99.5124390549       0.00305599342196
100.012501563       0.00376120211758
100.512564071       0.00461115155327
101.012626578       0.00563116577156
101.512689086       0.00685002429429
102.012751594       0.00830022837777
102.512814102       0.0100182455109
103.01287661       0.0120447211065
103.512939117       0.014424644973
104.013001625       0.0172074589249
104.513064133       0.0204470908748
105.013126641       0.0242019000227
105.513189149       0.0285345174181
106.013251656       0.0335115662914
106.513314164       0.0392032472266
107.013376672       0.0456827745526
107.51343918       0.0530256523248
108.013501688       0.0613087810049
108.513564196       0.070609389444
109.013626703       0.0810037910287
109.513689211       0.0925659678259
110.013751719       0.105365992183
110.513814227       0.119468301395
111.013876735       0.134929847593
111.513939242       0.151798151739
112.01400175       0.170109297322
112.514064258       0.18988590576
113.014126766       0.211135141388
113.514189274       0.233846798903
114.014251781       0.257991530043
114.514314289       0.283519268697
115.014376797       0.310357914457
115.514439305       0.338412333543
116.014501813       0.367563732882
116.514564321       0.397669457884
117.014626828       0.428563257088
117.514689336       0.460056047336
118.014751844       0.49193720185
118.514814352       0.523976370489
119.01487686       0.555925827214
119.514939367       0.587523324529
120.015001875       0.618495419081
120.515064383       0.64856121711
121.015126891       0.67743647368
121.515189399       0.704837966106
122.015251906       0.730488050332
122.515314414       0.754119299677
123.015376922       0.775479118808
123.51543943       0.794334222394
124.015501938       0.810474867833
124.515564446       0.823718734909
125.015626953       0.833914352135
125.515689461       0.840943979811
126.015751969       0.844725873069
126.515814477       0.845215864106
127.015876985       0.842408220774
127.515939492       0.836335758196
128.016002       0.827069200374
128.516064508       0.81471580914
129.016127016       0.799417317623
129.516189524       0.781347223904
130.016252032       0.760707517079
130.516314539       0.737724922107
131.016377047       0.712646760943
131.516439555       0.685736535433
132.016502063       0.6572693419
132.516564571       0.627527228354
133.016627078       0.596794602816
133.516689586       0.565353795594
134.016752094       0.533480869794
134.516814602       0.501441763323
135.01687711       0.469488832632
135.516939617       0.437857853981
136.017002125       0.406765522692
136.517064633       0.376407475209
137.017127141       0.346956843433
137.517189649       0.31856333613
138.017252157       0.2913528288
138.517314664       0.265427431497
139.017377172       0.240865994063
139.51743968       0.217725000201
140.017502188       0.196039795967
140.517564696       0.175826094474
141.017627203       0.157081696976
141.517689711       0.139788370734
142.017752219       0.12391382609
142.517814727       0.109413738689
143.017877235       0.0962337675006
143.517939742       0.0843115250191
144.01800225       0.0735784623384
144.518064758       0.0639616385418
145.018127266       0.0553853507164
145.518189774       0.047772607665
146.018252282       0.041046436875
146.518314789       0.0351310203575
147.018377297       0.0299526604743
147.518439805       0.025440581777
148.018502313       0.0215275791496
148.518564821       0.0181505262026
149.018627328       0.0152507609548
149.518689836       0.0127743684367
150.018752344       0.0106723820718
150.518814852       0.00890092765586
151.01887736       0.00742133560804
151.518939867       0.00620024906436
152.019002375       0.00520975748143
152.519064883       0.0044275878806
153.019127391       0.00383738884577
153.519189899       0.00342914604194
154.019252407       0.00319977248181
154.519314914       0.00315392214865
155.019377422       0.00330508197309
155.51943993       0.00367700461052
156.019502438       0.00430555298087
156.519564946       0.00524103706215
157.019627453       0.00655113385425
157.519689961       0.0083244925461
158.019752469       0.0106751384281
158.519814977       0.0137478005784
159.019877485       0.017724299277
159.519939992       0.0228311387863
160.0200025       0.0293484587475
160.520065008       0.037620501999
161.020127516       0.0480677569797
161.520190024       0.0612009277516
162.020252532       0.0776368726499
162.520315039       0.0981166321333
163.020377547       0.123525635995
163.520440055       0.154916138161
164.020502563       0.193531872393
164.520565071       0.240834852968
165.020627578       0.298534159992
165.520690086       0.368616448595
166.020752594       0.453377805037
166.520815102       0.555456441228
167.02087761       0.677865573812
167.520940118       0.824025677227
168.021002625       0.997795135473
168.521065133       1.20349814923
169.021127641       1.44594858941
169.521190149       1.73046833194
170.021252657       2.06289846965
170.521315164       2.44960168492
171.021377672       2.8974539899
171.52144018       3.41382401142
172.021502688       4.00653802345
172.521565196       4.68382902225
173.021627703       5.45426830623
173.521690211       6.32667827123
174.021752719       7.31002546739
174.521815227       8.41329338828
175.021877735       9.64533497528
175.521940243       11.0147054147
176.02200275       12.5294764738
176.522065258       14.1970343484
177.022127766       16.0238637639
177.522190274       18.0153218573
178.022252782       20.175406145
178.522315289       22.5065216192
179.022377797       25.0092526823
179.522440305       27.6821461884
180.022502813       30.5215122819
180.522565321       33.5212499722
181.022627828       36.6727044315
181.522690336       39.9645628254
182.022752844       43.3827950701
182.522815352       46.9106452356
183.02287786       50.5286783994
183.522940368       54.2148865866
184.023002875       57.9448560569
184.523065383       61.6919966216
185.023127891       65.4278319604
185.523190399       69.1223480925
186.023252907       72.7443953044
186.523315414       76.2621370132
187.023377922       79.6435373142
187.52344043       82.8568773917
188.023502938       85.8712896334
188.523565446       88.6572972337
189.023627953       91.1873463587
189.523690461       93.4363176112
190.023752969       95.3820036093
190.523815477       97.0055399874
191.023877985       98.2917780401
191.523940493       99.2295885445
192.024003       99.8120879665
192.524065508       100.036780251
193.024128016       99.905609627
193.524190524       99.4249222819
194.024253032       98.6053372577
194.524315539       97.4615294519
195.024378047       96.0119300368
195.524440555       94.2783518977
196.024503063       92.2855497253
196.524565571       90.0607261331
197.024628079       87.6329965391
197.524690586       85.032826511
198.024753094       82.2914558047
198.524815602       79.4403234119
199.02487811       76.5105075793
199.524940618       73.5321939962
200.025003125       70.5341842009
200.525065633       67.5434547796
201.025128141       64.5847761863
201.525190649       61.680398058
202.025253157       58.8498058178
202.525315664       56.1095512134
203.025378172       53.4731573059
203.52544068       50.951096376
204.025503188       48.5508373015
204.525565696       46.276957255
205.025628204       44.1313110963
205.525690711       42.1132506429
206.025753219       40.2198851072
206.525815727       38.4463734009
207.025878235       36.7862387341
207.525940743       35.2316959566
208.02600325       33.7739823985
208.526065758       32.403683517
209.026128266       31.1110454392
209.526190774       29.8862674415
210.026253282       28.7197685014
210.526315789       27.6024232462
211.026378297       26.5257638594
211.526440805       25.4821457534
212.026503313       24.4648760291
212.526565821       23.468304893
213.026628329       22.4878812481
213.526690836       21.5201746001
214.026753344       20.562866201
214.526815852       19.6147129738
215.02687836       18.6754882175
215.526940868       17.7459033845
216.027003375       16.8275153417
216.527065883       15.9226235028
217.027128391       15.034161043
217.527190899       14.1655841105
218.027253407       13.3207625462
218.527315914       12.5038751325
219.027378422       11.719311842
219.52744093       10.9715849697
220.027503438       10.2652504226
220.527565946       9.60483984484
221.027628454       8.99480368295
221.527690961       8.43946476592
222.027753469       7.94298150926
222.527815977       7.50931945682
223.027878485       7.1422295652
223.527940993       6.84523141618
224.0280035       6.62159941964
224.528066008       6.47435004173
225.028128516       6.40622816079
225.528191024       6.41969080972
226.028253532       6.51688680344
226.52831604       6.69963106121
227.028378547       6.96937280673
227.528441055       7.32715724822
228.028503563       7.7735807922
228.528566071       8.30874031171
229.028628579       8.93217745457
229.528691086       9.64281942327
230.028753594       10.438918067
230.528816102       11.3179894819
231.02887861       12.2767566032
231.528941118       13.3110974734
232.029003625       14.4160019837
232.529066133       15.5855398873
233.029128641       16.8128427796
233.529191149       18.0901025263
234.029253657       19.4085882913
234.529316165       20.7586838918
235.029378672       22.1299466802
235.52944118       23.5111885553
236.029503688       24.8905790407
236.529566196       26.2557696644
237.029628704       27.5940381579
237.529691211       28.8924502823
238.029753719       30.1380364159
238.529816227       31.3179794302
239.029878735       32.4198098553
239.529941243       33.4316039252
240.03000375       34.3421798099
240.530066258       35.1412871993
241.030128766       35.8197854214
241.530191274       36.3698054438
242.030253782       36.7848914364
242.53031629       37.0601180446
243.030378797       37.1921801265
243.530441305       37.1794524246
244.030503813       37.0220174501
244.530566321       36.7216607227
245.030628829       36.2818334044
245.530691336       35.7075832631
246.030753844       35.0054557612
246.530816352       34.1833678659
247.03087886       33.2504578829
247.530941368       32.216915215
248.031003875       31.0937944052
248.531066383       29.8928181452
249.031128891       28.6261740908
249.531191399       27.3063103397
250.031253907       25.945734287
250.531316415       24.5568192961
251.031378922       23.1516232216
251.53144143       21.7417223166
252.031503938       20.3380634652
252.531566446       18.950837039
253.031628954       17.5893719957
253.531691461       16.2620541504
254.031753969       14.9762678826
254.531816477       13.7383609064
255.031878985       12.5536311557
255.531941493       11.4263343329
256.032004001       10.3597102444
256.532066508       9.3560257182
257.032129016       8.41663166037
257.532191524       7.54203166298
258.032254032       6.73195952373
258.53231654       5.98546306611
259.032379047       5.30099175319
259.532441555       4.67648575453
260.032504063       4.10946434325
260.532566571       3.59711175632
261.032629079       3.13635893218
261.532691586       2.72395983447
262.032754094       2.35656136716
262.532816602       2.03076617497
263.03287911       1.74318789547
263.532941618       1.49049867788
264.033004126       1.26946900519
264.533066633       1.07700004513
265.033129141       0.910148911954
265.533191649       0.76614734341
266.033254157       0.64241438749
266.533316665       0.536563752554
267.033379172       0.44640650609
267.53344168       0.369949814166
268.033504188       0.30539239973
268.533566696       0.251117366952
