#  x                 y             frequency           intensity
0.0       3.88226015216e-16       68.95       5.24084
0.500062507813       6.64060518406e-16       151.41       32.69097
1.00012501563       1.13144591527e-15       157.44       21.65841
1.50018752344       1.92027333203e-15       264.13       13.88870
2.00025003125       3.24635055785e-15       305.50       20.50368
2.50031253907       5.46677114123e-15       323.27       17.81206
3.00037504688       9.17000312892e-15       367.20       93.76866
3.50043755469       1.53218493386e-14       411.35       0.91866
4.00050006251       2.55009291268e-14       532.79       1.52010
4.50056257032       4.22769778029e-14       605.93       11.67655
5.00062507813       6.981600219e-14       734.18       11.93890
5.50068758595       1.14844217295e-13       798.97       23.85199
6.00075009376       1.88176939475e-13       830.92       71.66783
6.50081260158       3.07133212592e-13       909.09       145.31849
7.00087510939       4.99333009585e-13       977.53       32.73117
7.5009376172       8.08643099069e-13       1032.69       99.66028
8.00100012502       1.30444750133e-12       1041.23       7.66614
8.50106263283       2.09603938451e-12       1131.28       10.22799
9.00112514064       3.35486759932e-12       1165.35       18.07571
9.50118764846       5.34877642189e-12       1218.98       77.99284
10.0012501563       8.49447646334e-12       1247.42       4.87847
10.5013126641       1.34376059907e-11       1340.21       3.20165
11.0013751719       2.11743604267e-11       1362.65       5.51022
11.5014376797       3.32354690835e-11       1393.13       12.56233
12.0015001875       5.19632657166e-11       1404.93       99.20412
12.5015626953       8.09271366698e-11       1421.50       192.96402
13.0016252032       1.25543729227e-10       1510.32       3.77492
13.501687711       1.93998775382e-10       1677.54       26.31388
14.0017502188       2.98611180801e-10       1828.33       319.91790
14.5018127266       4.57842658011e-10       3000.44       14.88512
15.0018752344       6.99245301024e-10       3054.07       27.62241
15.5019377422       1.06376567321e-09       3103.19       16.33674
16.00200025       1.61200171766e-09       3481.16       7.52928
16.5020627578       2.43325789706e-09       3494.83       375.76110
17.0021252657       3.65859128759e-09       3549.37       7.25785
17.5021877735       5.47952311246e-09       3799.38       48.39358
18.0022502813       8.17475495844e-09
18.5023127891       1.21481413529e-08
19.0023752969       1.79824161064e-08
19.5024378047       2.6514861448e-08
20.0025003125       3.89433936193e-08
20.5025628204       5.69746071687e-08
21.0026253282       8.30294187498e-08
21.502687836       1.20527394637e-07
22.0027503438       1.74278034341e-07
22.5028128516       2.51016719801e-07
23.0028753594       3.60135356169e-07
23.5029378672       5.14673708362e-07
24.003000375       7.32658039246e-07
24.5030628829       1.038900053e-06
25.0031253907       1.46740275623e-06
25.5031878985       2.06456236125e-06
26.0032504063       2.89340877032e-06
26.5033129141       4.03919383235e-06
27.0033754219       5.61671914901e-06
27.5034379297       7.77989678886e-06
28.0035004376       1.07341602722e-05
28.5035629454       1.47524933796e-05
29.0036254532       2.01960247545e-05
29.503687961       2.75403511425e-05
30.0037504688       3.74090056991e-05
30.5038129766       5.06157842232e-05
31.0038754844       6.82179851094e-05
31.5039379922       9.15830111941e-05
32.0040005001       0.000122471225219
32.5040630079       0.00016313844539
33.0041255157       0.000216462011188
33.5041880235       0.000286094936891
34.0042505313       0.000376653292202
34.5043130391       0.000493942592197
35.0043755469       0.000645229623513
35.5044380548       0.000839566754829
36.0045005626       0.0010881763447
36.5045630704       0.00140490332863
37.0046255782       0.00180674439112
37.504688086       0.00231446225112
38.0047505938       0.00295329344524
38.5048131016       0.00375375751042
39.0048756095       0.00475257456886
39.5049381173       0.00599369691914
40.0050006251       0.00752945825774
40.5050631329       0.00942184151199
41.0051256407       0.0117438628877
41.5051881485       0.0145810655602
42.0052506563       0.0180331114265
42.5053131641       0.0222154534738
43.005375672       0.0272610646197
43.5054381798       0.0333221914082
44.0055006876       0.0405720928019
44.5055631954       0.0492067156563
45.0056257032       0.0594462495245
45.505688211       0.0715364944844
46.0057507188       0.0857499670706
46.5058132267       0.102386661513
47.0058757345       0.121774376812
47.5059382423       0.144268515199
48.0060007501       0.17025125479
48.5060632579       0.200129999267
49.0061257657       0.234335010765
49.5061882735       0.273316139239
50.0062507813       0.317538572962
50.5063132892       0.367477550629
51.006375797       0.423611996123
51.5064383048       0.486417062291
52.0065008126       0.556355599905
52.5065633204       0.633868601924
53.0066258282       0.719364710661
53.506688336       0.813208915523
54.0067508439       0.915710610582
54.5068133517       1.02711122295
55.0068758595       1.14757166335
55.5069383673       1.27715988745
56.0070008751       1.41583888921
56.5070633829       1.56345547309
57.0071258907       1.71973016944
57.5071883985       1.88424866514
58.0072509064       2.05645511718
58.5073134142       2.23564770087
59.007375922       2.42097671484
59.5074384298       2.61144552224
60.0075009376       2.80591455181
60.5075634454       3.0031085148
61.0076259532       3.20162691524
61.5076884611       3.39995784387
62.0077509689       3.59649495294
62.5078134767       3.7895574125
63.0078759845       3.9774125523
63.5079384923       4.15830080076
64.0080010001       4.33046244615
64.5080635079       4.49216567035
65.0081260158       4.64173524359
65.5081885236       4.77758122393
66.0082510314       4.89822697934
66.5083135392       5.00233584473
67.008376047       5.08873574295
67.5084385548       5.15644113626
68.0085010626       5.20467173395
68.5085635704       5.23286745955
69.0086260783       5.24069927645
69.5086885861       5.22807557914
70.0087510939       5.19514397674
70.5088136017       5.14228842003
71.0088761095       5.07012175033
71.5089386173       4.97947387236
72.0090011251       4.87137587018
72.509063633       4.74704049126
73.0091261408       4.60783951498
73.5091886486       4.45527859568
74.0092511564       4.29097022437
74.5093136642       4.1166054859
75.009376172       3.93392530008
75.5094386798       3.74469182433
76.0095011876       3.55066066547
76.5095636955       3.35355449904
77.0096262033       3.15503862933
77.5096887111       2.95669894569
78.0097512189       2.76002264228
78.5098137267       2.5663819748
79.0098762345       2.37702123078
79.5099387423       2.19304699403
80.0100012502       2.01542169171
80.510063758       1.84496032743
81.0101262658       1.68233022742
81.5101887736       1.5280535619
82.0102512814       1.38251235105
82.5103137892       1.24595562525
83.010376297       1.11850838321
83.5104388049       1.00018197778
84.0105013127       0.890885558615
84.5105638205       0.790438210472
85.0106263283       0.698581445513
85.5106888361       0.614991735658
86.0107513439       0.539292804678
86.5108138517       0.471067437922
87.0108763595       0.409868608434
87.5109388674       0.35522976
88.0110013752       0.30667412905
88.511063883       0.263723026861
89.0111263908       0.225903040254
89.5111888986       0.192752141978
90.0112514064       0.163824730796
90.5113139142       0.138695645472
91.0113764221       0.116963216286
91.5114389299       0.098251432528
92.0115014377       0.0822113146879
92.5115639455       0.0685215862991
93.0116264533       0.0568887428665
93.5116889611       0.0470466146677
94.0117514689       0.0387555168853
94.5118139767       0.0318010751138
95.0118764846       0.025992807278
95.5119389924       0.0211625349163
96.0120015002       0.01716268805
96.512064008       0.0138645588877
97.0121265158       0.0111565507117
97.5121890236       0.00894245974887
98.0122515314       0.00713981982612
98.5123140393       0.00567833231688
99.0123765471       0.00449839737691
99.5124390549       0.00354975680893
100.012501563       0.00279025408503
100.512564071       0.00218471307757
101.012626578       0.00170393385533
101.512689086       0.00132380142928
102.012751594       0.00102450150701
102.512814102       0.000789836055817
103.01287661       0.000606630700126
103.512939117       0.000464225609326
104.013001625       0.000354041492248
104.513064133       0.00026921253667
105.013126641       0.000204278556465
105.513189149       0.000154929184729
106.013251656       0.000117793637017
106.513314164       9.02703327009e-05
107.013376672       7.03914813196e-05
107.51343918       5.67186001853e-05
108.013501688       4.82658228406e-05
108.513564196       4.44487860673e-05
109.013626703       4.50578535064e-05
109.513689211       5.02554601097e-05
110.013751719       6.05984625967e-05
110.513814227       7.70875805624e-05
111.013876735       0.000101247338719
111.513939242       0.00013524140406
112.01400175       0.00018202988604
112.514064258       0.000245577067891
113.014126766       0.000331120197597
113.514189274       0.000445512420514
114.014251781       0.000597655710765
114.514314289       0.000799042777325
115.014376797       0.00106443039502
115.514439305       0.00141267043889
116.014501813       0.0018677290626
116.514564321       0.00245992891545
117.014626828       0.00322745396691
117.514689336       0.00421816129819
118.014751844       0.00549174898355
118.514814352       0.00712233373027
119.01487686       0.00920149603832
119.514939367       0.0118418539868
120.015001875       0.0151812290069
120.515064383       0.0193874677598
121.015126891       0.0246639830446
121.515189399       0.0312560730218
122.015251906       0.0394580714087
122.515314414       0.0496213711333
123.015376922       0.0621633496685
123.51543943       0.0775772053725
124.015501938       0.0964426901719
124.515564446       0.119437694452
125.015626953       0.147350604831
125.515689461       0.181093314516
126.015751969       0.221714719327
126.515814477       0.270414480675
127.015876985       0.328556780476
127.515939492       0.397683733352
128.016002       0.479528059829
128.516064508       0.576024562587
129.016127016       0.689319888263
129.516189524       0.821780002459
130.016252032       0.975994758466
130.516314539       1.15477890378
131.016377047       1.36116884628
131.516439555       1.59841449701
132.016502063       1.86996552279
132.516564571       2.17945138111
133.016627078       2.53065457622
133.516689586       2.92747666948
134.016752094       3.3738967005
134.516814602       3.87392182936
135.01687711       4.43153019149
135.516939617       5.05060616553
136.017002125       5.73486848527
136.517064633       6.4877918758
137.017127141       7.31252315469
137.517189649       8.21179300356
138.017252157       9.1878248759
138.517314664       10.2422427532
139.017377172       11.3759796847
139.51743968       12.5891892332
140.017502188       13.8811620978
140.517564696       15.250250272
141.017627203       16.6938011306
141.517689711       18.2081037996
142.017752219       19.7883500563
142.517814727       21.4286118215
143.017877235       23.1218370508
143.517939742       24.8598654993
144.01800225       26.6334654433
144.518064758       28.4323919895
145.018127266       30.2454671033
145.518189774       32.0606809612
146.018252282       33.8653136824
146.518314789       35.6460759469
147.018377297       37.3892664777
147.518439805       39.0809438628
148.018502313       40.7071097498
148.518564821       42.2539000604
149.018627328       43.707780573
149.518689836       45.0557430098
150.018752344       46.2854976539
150.518814852       47.3856585147
151.01887736       48.3459171593
151.518939867       49.1572015329
152.019002375       49.8118163926
152.519064883       50.3035623734
153.019127391       50.6278311804
153.519189899       50.7816749347
154.019252407       50.7638482955
154.519314914       50.5748225931
155.019377422       50.2167718493
155.51943993       49.6935311851
156.019502438       49.0105287303
156.519564946       48.1746927151
157.019627453       47.1943359451
157.519689961       46.0790203094
158.019752469       44.8394043496
158.519814977       43.4870772048
159.019877485       42.0343824509
159.519939992       40.4942354603
160.0200025       38.8799379254
160.520065008       37.2049931198
161.020127516       35.482925314
161.520190024       33.7271065359
162.020252532       31.9505935694
162.520315039       30.1659777317
163.020377547       28.3852495787
163.520440055       26.6196802589
164.020502563       24.8797207935
164.520565071       23.1749201093
165.020627578       21.5138622078
165.520690086       19.9041224248
166.020752594       18.3522423371
166.520815102       16.863722506
167.02087761       15.4430319296
167.520940118       14.0936327989
168.021002625       12.8180189381
168.521065133       11.6177661379
169.021127641       10.4935924855
169.521190149       9.44542673303
170.021252657       8.47248274458
170.521315164       7.57333810069
171.021377672       6.74601502391
171.52144018       5.98806190964
172.021502688       5.29663389665
172.521565196       4.66857108603
173.021627703       4.10047320782
173.521690211       3.58876973571
174.021752719       3.12978465418
174.521815227       2.71979528471
175.021877735       2.35508477229
175.521940243       2.03198801601
176.02200275       1.7469309943
176.522065258       1.4964635841
177.022127766       1.27728610117
177.522190274       1.08626989537
178.022252782       0.920472419887
178.522315289       0.77714725647
179.022377797       0.653749622154
179.522440305       0.547937907097
180.022502813       0.457571800333
180.522565321       0.380707552696
181.022627828       0.315590906018
181.522690336       0.260648187415
182.022752844       0.214476029428
182.522815352       0.175830133162
183.02287786       0.143613444528
183.522940368       0.116864065014
184.023002875       0.0947431698079
184.523065383       0.0765231588711
185.023127891       0.0615762218232
185.523190399       0.0493634560955
186.023252907       0.0394246402974
186.523315414       0.0313687315137
187.023377922       0.0248651264357
187.52344043       0.0196357018547
188.023502938       0.0154476299402
188.523565446       0.0121069476539
189.023627953       0.00945284727427
189.523690461       0.00735264594798
190.023752969       0.00569738602813
190.523815477       0.00439801429216
191.023877985       0.0033820865337
191.523940493       0.00259094410893
192.024003       0.00197731042158
192.524065508       0.00150325772855
193.024128016       0.0011384977524
193.524190524       0.000858953153458
194.024253032       0.000645570736239
194.524315539       0.000483341177792
195.024378047       0.000360493936607
195.524440555       0.000267839731563
196.024503063       0.000198236499391
196.524565571       0.000146157998586
197.024628079       0.000107347199634
197.524690586       7.85392737589e-05
198.024753094       5.72413652863e-05
198.524815602       4.15584158056e-05
199.02487811       3.00561176512e-05
199.524940618       2.1653630414e-05
200.025003125       1.55400202524e-05
200.525065633       1.11095018648e-05
201.025128141       7.91150121929e-06
201.525190649       5.61233677493e-06
202.025253157       3.96595981466e-06
202.525315664       2.79172072223e-06
203.025378172       1.95755565751e-06
203.52544068       1.36733318592e-06
204.025503188       9.51377037954e-07
204.525565696       6.59401445713e-07
205.025628204       4.55269776828e-07
205.525690711       3.1312419985e-07
206.025753219       2.14541174279e-07
206.525815727       1.46450707636e-07
207.025878235       9.96215224021e-08
207.525940743       6.75635626765e-08
208.02600325       4.57369012693e-08
208.526065758       3.09846920416e-08
209.026128266       2.11294261806e-08
209.526190774       1.46880373909e-08
210.026253282       1.06736535265e-08
210.526315789       8.46102772039e-09
211.026378297       7.69970085452e-09
211.526440805       8.26438391983e-09
212.026503313       1.02364155333e-08
212.526565821       1.39138727896e-08
213.026628329       1.98513651223e-08
213.526690836       2.89340683924e-08
214.026753344       4.24945097653e-08
214.526815852       6.24853719902e-08
215.02687836       9.17275843843e-08
215.526940868       1.34260730229e-07
216.027003375       1.95832970225e-07
216.527065883       2.84581061961e-07
217.027128391       4.11968651833e-07
217.527190899       5.94074087725e-07
218.027253407       8.53349118842e-07
218.527315914       1.22100896094e-06
219.027378422       1.74026470873e-06
219.52744093       2.47067390063e-06
220.027503438       3.49396772776e-06
220.527565946       4.92181817689e-06
221.027628454       6.9061403431e-06
221.527690961       9.65269014927e-06
222.027753469       1.34389226068e-05
222.527815977       1.86373283579e-05
223.027878485       2.57457753425e-05
223.527940993       3.54267577353e-05
224.0280035       4.85579063124e-05
224.528066008       6.62966542023e-05
225.028128516       9.01625908843e-05
225.528191024       0.000122141786407
226.028253532       0.000164818237305
226.52831604       0.000221538584101
227.028378547       0.00029661738327
227.528441055       0.000395591485794
228.028503563       0.000525533475942
228.528566071       0.000695435646465
229.028628579       0.000916677609178
229.528691086       0.00120359233102
230.028753594       0.00157414709896
230.528816102       0.00205075759099
231.02887861       0.00266125478447
231.528941118       0.00344002576745
232.029003625       0.00442935051187
232.529066133       0.00568095717547
233.029128641       0.00725781835746
233.529191149       0.00923620975488
234.029253657       0.01170805065
234.529316165       0.014783542389
235.029378672       0.0185941162665
235.52944118       0.0232956957977
236.029503688       0.0290722700299
236.529566196       0.0361397641565
237.029628704       0.0447501811141
237.529691211       0.055195973007
238.029753719       0.0678145841316
238.529816227       0.0829930881812
239.029878735       0.101172821149
239.529941243       0.122853888879
240.03000375       0.148599404689
240.530066258       0.179039288676
241.030128766       0.21487343712
241.530191274       0.256874048773
242.030253782       0.305886876009
242.53031629       0.362831154086
243.030378797       0.428697952485
243.530441305       0.504546689924
244.030503813       0.591499560648
244.530566321       0.69073363515
245.030628829       0.803470425024
245.530691336       0.930962739803
246.030753844       1.07447871428
246.530816352       1.23528294797
247.03087886       1.41461477363
247.530941368       1.61366375876
248.031003875       1.83354264031
248.531066383       2.07525799733
249.031128891       2.33967907563
249.531191399       2.62750528937
250.031253907       2.93923303295
250.531316415       3.27512253868
251.031378922       3.63516560597
251.53144143       4.01905510252
252.031503938       4.42615719119
252.531566446       4.85548726516
253.031628954       5.30569057284
253.531691461       5.77502848151
254.031753969       6.26137126148
254.531816477       6.76219817023
255.031878985       7.27460547889
255.531941493       7.79532291361
256.032004001       8.32073878432
256.532066508       8.84693384969
257.032129016       9.36972372365
257.532191524       9.88470937538
258.032254032       10.3873350178
258.53231654       10.8729524299
259.032379047       11.3368905226
259.532441555       11.7745287515
260.032504063       12.1813728006
260.532566571       12.5531308314
261.032629079       12.8857885055
261.532691586       13.1756809569
262.032754094       13.419559917
262.532816602       13.6146542779
263.03287911       13.7587225175
263.532941618       13.8500956037
264.033004126       13.8877092334
264.533066633       13.8711245394
