#  x                 y             frequency           intensity
0.0       1.03773733333e-13       63.57       5.33816
0.500062507813       1.70197918687e-13       106.98       7.17370
1.00012501563       2.78050808159e-13       220.04       3.32419
1.50018752344       4.52477711751e-13       295.59       22.56499
2.00025003125       7.33454764818e-13       347.79       31.30675
2.50031253907       1.18427507799e-12       369.16       14.27799
3.00037504688       1.90473673961e-12       433.60       104.50450
3.50043755469       3.0515496501e-12       515.17       3.47094
4.00050006251       4.8697765634e-12       555.50       6.67956
4.50056257032       7.74106551326e-12       602.53       5.71359
5.00062507813       1.22573211098e-11       772.46       7.26355
5.50068758595       1.93327438733e-11       820.38       13.90559
6.00075009376       3.03734793352e-11       860.80       95.99936
6.50081260158       4.75333807039e-11       881.64       54.91929
7.00087510939       7.40979130294e-11       937.23       71.55434
7.5009376172       1.15057878457e-10       988.24       80.31165
8.00100012502       1.77963058274e-10       1082.36       18.70682
8.50106263283       2.74186755192e-10       1102.32       62.21375
9.00112514064       4.20790761804e-10       1179.23       3.58885
9.50118764846       6.43263684761e-10       1214.39       18.66947
10.0012501563       9.79523781819e-10       1233.57       12.98476
10.5013126641       1.48574421591e-09       1303.31       6.48118
11.0013751719       2.24479261384e-09       1380.60       18.11730
11.5014376797       3.37840346774e-09       1395.98       52.12889
12.0015001875       5.06465558005e-09       1401.95       153.44280
12.5015626953       7.56295353379e-09       1422.70       233.81710
13.0016252032       1.12495735784e-08       1493.11       6.90945
13.501687711       1.66680119062e-08       1653.48       36.87159
14.0017502188       2.45999744719e-08       1826.34       298.90720
14.5018127266       3.61650128565e-08       3035.82       6.70178
15.0018752344       5.29597229146e-08       3050.57       38.93550
15.5019377422       7.72513179703e-08       3093.75       19.55079
16.00200025       1.1224556851e-07       3438.35       252.06100
16.5020627578       1.62455950422e-07       3482.13       7.84722
17.0021252657       2.34209849814e-07       3575.57       13.14229
17.5021877735       3.36339443215e-07       3779.51       43.62127
18.0022502813       4.81120164446e-07
18.5023127891       6.85539416464e-07
19.0023752969       9.73003527475e-07
19.5024378047       1.3756232645e-06
20.0025003125       1.93725915627e-06
20.5025628204       2.71755939896e-06
21.0026253282       3.7972875173e-06
21.502687836       5.28531688457e-06
22.0027503438       7.32776769724e-06
22.5028128516       1.01198824565e-05
23.0028753594       1.39213821831e-05
23.5029378672       1.90762215398e-05
24.003000375       2.60378710302e-05
24.5030628829       3.54015028278e-05
25.0031253907       4.79447478255e-05
25.5031878985       6.46790290574e-05
26.0032504063       8.69138639398e-05
26.5033129141       0.000116336966912
27.0033754219       0.00015511347552
27.5034379297       0.000206008165097
28.0035004376       0.00027253510537
28.5035629454       0.000359139838369
29.0036254532       0.000471419808185
29.503687961       0.000616389431482
30.0037504688       0.00080279683882
30.5038129766       0.00104149990965
31.0038754844       0.00134590972913
31.5039379922       0.00173250996555
32.0040005001       0.00222146084704
32.5040630079       0.00283729634182
33.0041255157       0.00360972274488
33.5041880235       0.00457452606805
34.0042505313       0.00577459433655
34.5043130391       0.00726105902892
35.0043755469       0.00909455737529
35.5044380548       0.0113466139752
36.0045005626       0.0141011361445
36.5045630704       0.0174560125064
37.0046255782       0.0215247985757
37.504688086       0.0264384664686
38.0047505938       0.032347188437
38.5048131016       0.0394221157868
39.0048756095       0.0478571060308
39.5049381173       0.0578703420697
40.0050006251       0.0697057780464
40.5050631329       0.0836343376287
41.0051256407       0.0999547822292
41.5051881485       0.118994159532
42.0052506563       0.141107737157
42.5053131641       0.166678322907
43.005375672       0.196114872325
43.5054381798       0.229850286837
44.0055006876       0.268338312044
44.5055631954       0.312049456175
45.0056257032       0.36146586377
45.505688211       0.417075099411
46.0057507188       0.479362820955
46.5058132267       0.548804350995
47.0058757345       0.625855188898
47.5059382423       0.710940543176
48.0060007501       0.80444400415
48.5060632579       0.906695519059
49.0061257657       1.01795887429
49.5061882735       1.13841893105
50.0062507813       1.26816889975
50.5063132892       1.40719797268
51.006375797       1.55537966277
51.5064383048       1.71246121618
52.0065008126       1.87805447659
52.5065633204       2.05162857819
53.0066258282       2.2325048304
53.506688336       2.41985413132
54.0067508439       2.61269720591
54.5068133517       2.80990791186
55.0068758595       3.01021978958
55.5069383673       3.21223595547
56.0070008751       3.41444235075
56.5070633829       3.61522426442
57.0071258907       3.81288595116
57.5071883985       4.00567306636
58.0072509064       4.19179754474
58.5073134142       4.36946445929
59.007375922       4.536900318
59.5074384298       4.69238218905
60.0075009376       4.83426699562
60.5075634454       4.96102028974
61.0076259532       5.07124380458
61.5076884611       5.16370109528
62.0077509689       5.23734061234
62.5078134767       5.29131560603
63.0078759845       5.32500033571
63.5079384923       5.33800215051
64.0080010001       5.33016911604
64.5080635079       5.30159298065
65.0081260158       5.25260740129
65.5081885236       5.18378147827
66.0082510314       5.09590877552
66.5083135392       4.98999212482
67.008376047       4.86722462318
67.5084385548       4.7289673301
68.0085010626       4.5767242512
68.5085635704       4.41211525538
69.0086260783       4.23684761155
69.5086885861       4.05268684881
70.0087510939       3.8614276386
70.5088136017       3.66486537243
71.0088761095       3.46476906361
71.5089386173       3.26285613963
72.0090011251       3.06076961625
72.509063633       2.86005805769
73.0091261408       2.66215863368
73.5091886486       2.46838348666
74.0092511564       2.27990952507
74.5093136642       2.09777166396
75.009376172       1.9228594464
75.5094386798       1.75591689878
76.0095011876       1.5975454041
76.5095636955       1.44820932005
77.0096262033       1.30824402337
77.5096887111       1.17786603055
78.0097512189       1.05718482518
78.5098137267       0.946216014812
79.0098762345       0.844895442997
79.5099387423       0.753093894336
80.0100012502       0.67063204976
80.510063758       0.597295374338
81.0101262658       0.532848648749
81.5101887736       0.477049886503
82.0102512814       0.42966341036
82.5103137892       0.390471891978
83.010376297       0.359287187398
83.5104388049       0.335959826923
84.0105013127       0.320387040702
84.5105638205       0.312519220935
85.0106263283       0.312364738134
85.5106888361       0.319993042921
86.0107513439       0.335535997118
86.5108138517       0.359187389269
87.0108763595       0.391200601344
87.5109388674       0.431884406279
88.0110013752       0.481596891253
88.511063883       0.540737520234
89.0111263908       0.60973737207
89.5111888986       0.689047617938
90.0112514064       0.779126334427
90.5113139142       0.880423786025
91.0113764221       0.993366352681
91.5114389299       1.11833932376
92.0115014377       1.25566882772
92.5115639455       1.40560321568
93.0116264533       1.56829426497
93.5116889611       1.74377861301
94.0117514689       1.93195987091
94.5118139767       2.13259189699
95.0118764846       2.34526373032
95.5119389924       2.56938669244
96.0120015002       2.80418415758
96.512064008       3.04868446866
97.0121265158       3.30171743538
97.5121890236       3.56191479206
98.0122515314       3.82771491742
98.5123140393       4.09737202586
99.0123765471       4.36896993365
99.5124390549       4.64044038477
100.012501563       4.90958579452
100.512564071       5.17410613745
101.012626578       5.43162957482
101.512689086       5.67974628979
102.012751594       5.91604488116
102.512814102       6.13815056303
103.01287661       6.3437643333
103.512939117       6.53070221173
104.013001625       6.69693361178
104.513064133       6.84061790252
105.013126641       6.96013823794
105.513189149       7.05413178153
106.013251656       7.12151553389
106.513314164       7.16150707651
107.013376672       7.17363967435
107.51343918       7.15777132818
108.013501688       7.1140875298
108.513564196       7.04309764458
109.013626703       6.94562501917
109.513689211       6.82279108237
110.013751719       6.67599386807
110.513814227       6.50688153492
111.013876735       6.31732158348
111.513939242       6.10936657414
112.01400175       5.88521722418
112.514064258       5.64718380899
113.014126766       5.39764680942
113.514189274       5.1390177344
114.014251781       4.8737010078
114.514314289       4.60405774258
115.014376797       4.33237213714
115.514439305       4.0608211228
116.014501813       3.79144777183
116.514564321       3.5261388467
117.014626828       3.26660673902
117.514689336       3.01437591507
118.014751844       2.77077385844
118.514814352       2.53692638283
119.01487686       2.3137570835
119.514939367       2.10199060573
120.015001875       1.90215933576
120.515064383       1.7146130644
121.015126891       1.53953113669
121.515189399       1.37693658169
122.015251906       1.22671171426
122.515314414       1.08861471341
123.015376922       0.962296708079
123.51543943       0.847318938366
124.015501938       0.743169606012
124.515564446       0.649280080084
125.015626953       0.565040179434
125.515689461       0.489812310826
126.015751969       0.422944298264
126.515814477       0.363780793375
127.015876985       0.311673207156
127.515939492       0.265988148926
128.016002       0.226114398009
128.516064508       0.191468467128
129.016127016       0.161498843438
129.516189524       0.135689013683
130.016252032       0.113559394369
130.516314539       0.0946682965986
131.016377047       0.0786120588907
131.516439555       0.0650244806033
132.016502063       0.053575684186
132.516564571       0.0439705272123
133.016627078       0.0359466756407
133.516689586       0.0292724387447
134.016752094       0.0237444542371
134.516814602       0.0191852998298
135.01687711       0.0154410952767
135.516939617       0.012379147214
136.017002125       0.00988567811812
136.517064633       0.00786367066003
137.017127141       0.00623084977081
137.517189649       0.00491781692374
138.017252157       0.00386634449085
138.517314664       0.00302783252478
139.017377172       0.00236192588448
139.51743968       0.00183528618055
140.017502188       0.00142051046067
140.517564696       0.00109518677547
141.017627203       0.000841075647784
141.517689711       0.000643405900649
142.017752219       0.000490273176655
142.517814727       0.000372129706065
143.017877235       0.000281354366495
143.517939742       0.000211892747502
144.01800225       0.000158957724782
144.518064758       0.000118781907861
145.018127266       8.84142094801e-05
145.518189774       6.55536612894e-05
146.018252282       4.84144441923e-05
146.518314789       3.56168954135e-05
147.018377297       2.6099986613e-05
147.518439805       1.90514318322e-05
148.018502313       1.38521782263e-05
148.518564821       1.00325569386e-05
149.018627328       7.23782884006e-06
149.518689836       5.20125441216e-06
150.018752344       3.72315398693e-06
150.518814852       2.65470955624e-06
151.01887736       1.88549828035e-06
151.518939867       1.33394640565e-06
152.019002375       9.40056019615e-07
152.519064883       6.59890994479e-07
153.019127391       4.6141720275e-07
153.519189899       3.21379726602e-07
154.019252407       2.22969925373e-07
154.519314914       1.54090981612e-07
155.019377422       1.06074572278e-07
155.51943993       7.27358504302e-08
156.019502438       4.96808468105e-08
156.519564946       3.38012586033e-08
157.019627453       2.290765283e-08
157.519689961       1.54644038618e-08
158.019752469       1.03990372805e-08
158.519814977       6.96572745666e-09
159.019877485       4.64801792917e-09
159.519939992       3.08981409467e-09
160.0200025       2.04665850783e-09
160.520065008       1.35148958923e-09
161.020127516       8.90696669764e-10
161.520190024       5.87464897489e-10
162.020252532       3.90264231921e-10
162.520315039       2.64961988639e-10
163.020377547       1.89491768599e-10
163.520440055       1.50340907747e-10
164.020502563       1.40359790526e-10
164.520565071       1.57576787826e-10
165.020627578       2.0484333318e-10
165.520690086       2.90251713716e-10
166.020752594       4.2837802694e-10
166.520815102       6.42517944901e-10
167.02087761       9.68217311789e-10
167.520940118       1.45856881202e-09
168.021002625       2.19196886017e-09
168.521065133       3.28332930874e-09
169.021127641       4.9001473568e-09
169.521190149       7.28539444894e-09
170.021252657       1.07899437918e-08
170.521315164       1.59182855217e-08
171.021377672       2.33926686923e-08
171.52144018       3.42426770455e-08
172.021502688       4.99297417331e-08
172.521565196       7.25194117428e-08
173.021627703       1.04918587141e-07
173.521690211       1.51200680944e-07
174.021752719       2.17049200123e-07
174.521815227       3.10360006334e-07
175.021877735       4.42055125223e-07
175.521940243       6.27177143011e-07
176.02200275       8.86353835088e-07
176.522065258       1.2477487603e-06
177.022127766       1.74964636572e-06
177.522190274       2.44386113041e-06
178.022252782       3.40021110927e-06
178.522315289       4.71235882849e-06
179.022377797       6.50539897461e-06
179.522440305       8.94566506773e-06
180.022502813       1.22533388569e-05
180.522565321       1.67185791917e-05
181.022627828       2.27220443182e-05
181.522690336       3.07608655477e-05
182.022752844       4.14813434452e-05
182.522815352       5.57198820186e-05
183.02287786       7.45539530773e-05
183.522940368       9.93651921799e-05
184.023002875       0.000131917068172
184.523065383       0.000174449937196
185.023127891       0.000229796683866
185.523190399       0.000301522558784
186.023252907       0.000394093231263
186.523315414       0.000513075473306
187.023377922       0.000665375255831
187.52344043       0.000859518345877
188.023502938       0.00110597871416
188.523565446       0.00141756016062
189.023627953       0.00180983650102
189.523690461       0.00230165538515
190.023752969       0.0029157102873
190.523815477       0.00367918437134
191.023877985       0.004624468732
191.523940493       0.0057899559006
192.024003       0.0072209074298
192.524065508       0.00897039179764
193.024128016       0.0111002857698
193.524190524       0.0136823287163
194.024253032       0.0167992152036
194.524315539       0.0205457065117
195.024378047       0.025029736612
195.524440555       0.0303734826955
196.024503063       0.0367143646839
196.524565571       0.0442059324664
197.024628079       0.0530185940969
197.524690586       0.0633401331063
198.024753094       0.075375958723
198.524815602       0.0893490294649
199.02487811       0.105499388602
199.524940618       0.124083249739
200.025003125       0.145371572557
200.525065633       0.169648072925
201.025128141       0.197206618375
201.525190649       0.228347969583
202.025253157       0.263375841114
202.525315664       0.302592270312
203.025378172       0.346292301731
203.52544068       0.394758015695
204.025503188       0.44825195304
204.525565696       0.50701001335
205.025628204       0.571233930234
205.525690711       0.641083453763
206.025753219       0.716668395926
206.525815727       0.798040719007
207.025878235       0.885186867846
207.525940743       0.978020564038
208.02600325       1.07637629196
208.526065758       1.18000371224
209.026128266       1.28856323688
209.526190774       1.40162299097
210.026253282       1.51865736851
210.526315789       1.63904736401
211.026378297       1.76208282711
211.526440805       1.88696674589
212.026503313       2.01282161531
212.526565821       2.13869789282
213.026628329       2.26358448459
213.526690836       2.38642114455
214.026753344       2.50611260728
214.526815852       2.62154421636
215.02687836       2.73159875446
215.526940868       2.83517413284
216.027003375       2.93120155719
216.527065883       3.0186637571
217.027128391       3.09661284775
217.527190899       3.16418738765
218.027253407       3.22062820428
218.527315914       3.26529258161
219.027378422       3.29766643919
219.52744093       3.31737418017
220.027503438       3.32418594439
220.527565946       3.31802207085
221.027628454       3.2989546484
221.527690961       3.26720611235
222.027753469       3.22314492533
222.527815977       3.16727845957
223.027878485       3.10024327287
223.527940993       3.02279303886
224.0280035       2.9357844513
224.528066008       2.84016147101
225.028128516       2.73693831966
225.528191024       2.62718164789
226.028253532       2.5119923139
226.52831604       2.39248720441
227.028378547       2.26978151203
227.528441055       2.14497185362
228.028503563       2.01912057454
228.528566071       1.89324153484
229.028628579       1.76828761883
229.528691086       1.64514014994
230.028753594       1.52460033176
230.528816102       1.40738277485
231.02887861       1.29411111016
231.528941118       1.18531563512
232.029003625       1.0814328891
232.529066133       0.982807012902
233.029128641       0.889692712132
233.529191149       0.802259617983
234.029253657       0.720597821238
234.529316165       0.644724345495
235.029378672       0.574590323922
235.52944118       0.51008864921
236.029503688       0.451061877935
236.529566196       0.39731018742
237.029628704       0.34859920405
237.529691211       0.30466754594
238.029753719       0.265233948524
238.529816227       0.230003868171
239.029878735       0.198675485251
239.529941243       0.17094505335
240.03000375       0.146511564935
240.530066258       0.125080725072
241.030128766       0.106368243457
241.530191274       0.0901024707971
242.030253782       0.0760264183457
242.53031629       0.0638992091706
243.030378797       0.0534970166929
243.530441305       0.0446135503009
244.030503813       0.0370601497612
244.530566321       0.030665549994
245.030628829       0.0252753758941
245.530691336       0.0207514236173
246.030753844       0.0169707804397
246.530816352       0.0138248302557
247.03087886       0.0112181862992
247.530941368       0.00906758700369
248.031003875       0.00730078527699
248.531066383       0.00585545603193
249.031128891       0.00467814172331
249.531191399       0.00372325099378
250.031253907       0.00295212139591
250.531316415       0.002332153572
251.031378922       0.00183602125224
251.53144143       0.00144095896905
252.031503938       0.00112812746156
252.531566446       0.000882055327028
253.031628954       0.000690154529875
253.531691461       0.000542306862379
254.031753969       0.000430518325224
254.531816477       0.000348638622792
255.031878985       0.000292143514288
255.531941493       0.000257978599044
256.032004001       0.000244464220228
256.532066508       0.000251262528356
257.032129016       0.000279409342333
257.532191524       0.000331415272476
258.032254032       0.000411442620412
258.53231654       0.000525566837981
259.032379047       0.000682133801428
259.532441555       0.000892226822646
260.032504063       0.00117026015085
260.532566571       0.00153471867765
261.032629079       0.00200906659088
261.532691586       0.00262285075083
262.032754094       0.00341302748524
262.532816602       0.00442554418556
263.03287911       0.00571720937288
263.532941618       0.00735788659052
264.033004126       0.00943304833662
264.533066633       0.0120467260065
