#  x                 y             frequency           intensity
0.0       2.69076427521e-08       48.61       2.79981
0.500062507813       3.9262499483e-08       113.36       10.34930
1.00012501563       5.70667772721e-08       198.55       28.19596
1.50018752344       8.26212695504e-08       220.57       100.77111
2.00025003125       1.19152591835e-07       259.80       30.96079
2.50031253907       1.71166289518e-07       319.67       9.82606
3.00037504688       2.44926677891e-07       365.58       3.05732
3.50043755469       3.49105797034e-07       433.18       5.94945
4.00050006251       4.95656883731e-07       528.05       0.93575
4.50056257032       7.00984373439e-07       619.37       5.50957
5.00062507813       9.87503501437e-07       733.89       10.99151
5.50068758595       1.38570908639e-06       856.58       76.65425
6.00075009376       1.93690623983e-06       866.41       36.22616
6.50081260158       2.6967969278e-06       883.44       56.85310
7.00087510939       3.74016708778e-06       947.71       49.31605
7.5009376172       5.16698114476e-06       1024.43       148.04783
8.00100012502       7.11026622754e-06       1073.63       33.12197
8.50106263283       9.74625927751e-06       1125.22       4.14184
9.00112514064       1.33073987978e-05       1140.23       34.27816
9.50118764846       1.80988714949e-05       1216.02       14.65354
10.0012501563       2.45195747535e-05       1246.28       2.89599
10.5013126641       3.30885308199e-05       1301.39       9.31173
11.0013751719       4.44779894646e-05       1379.55       21.94095
11.5014376797       5.95546839165e-05       1396.72       4.84693
12.0015001875       7.94309603436e-05       1403.07       18.91486
12.5015626953       0.000105527783334       1412.16       404.36214
13.0016252032       0.000139651926431       1502.76       2.99155
13.501687711       0.000184089983694       1666.29       37.13846
14.0017502188       0.000241722179       1832.57       312.61304
14.5018127266       0.000316159295231       3028.61       2.67243
15.0018752344       0.0004119063831       3042.85       27.35913
15.5019377422       0.000534557223146       3093.92       17.81880
16.00200025       0.000691023784162       3439.42       258.46431
16.5020627578       0.000889805122703       3489.72       0.83205
17.0021252657       0.00114130027231       3576.43       10.62420
17.5021877735       0.00145816964452       3806.00       36.09753
18.0022502813       0.00185574926928
18.5023127891       0.00235252179883
19.0023752969       0.00297064754406
19.5024378047       0.00373655785975
20.0025003125       0.00468161190356
20.5025628204       0.0058428161198
21.0026253282       0.00726360371095
21.502687836       0.0089946688295
22.0027503438       0.0110948472381
22.5028128516       0.0136320317506
23.0028753594       0.0166841069045
23.5029378672       0.0203398830711
24.003000375       0.0247000056679
24.5030628829       0.0298778103936
25.0031253907       0.0360000906068
25.5031878985       0.04320773829
26.0032504063       0.0516562156748
26.5033129141       0.0615158108043
27.0033754219       0.0729716273213
27.5034379297       0.0862232568882
28.0035004376       0.101484082145
28.5035629454       0.118980159287
29.0036254532       0.138948632476
29.503687961       0.161635637574
30.0037504688       0.187293660402
30.5038129766       0.216178324855
31.0038754844       0.248544598906
31.5039379922       0.284642421731
32.0040005001       0.324711772572
32.5040630079       0.368977221493
33.0041255157       0.417642023111
33.5041880235       0.470881836496
34.0042505313       0.528838176711
34.5043130391       0.591611725419
35.0043755469       0.659255648522
35.5044380548       0.731769087068
36.0045005626       0.809091002761
36.5045630704       0.891094570237
37.0046255782       0.977582314095
37.504688086       1.06828218864
38.0047505938       1.16284479175
38.5048131016       1.26084189081
39.0048756095       1.36176641834
39.5049381173       1.46503406698
40.0050006251       1.56998657987
40.5050631329       1.67589679178
41.0051256407       1.78197543156
41.5051881485       1.88737964727
42.0052506563       1.99122316452
42.5053131641       2.09258793644
43.005375672       2.19053709357
43.5054381798       2.28412895443
44.0055006876       2.37243181533
44.5055631954       2.45453920269
45.0056257032       2.52958524383
45.505688211       2.59675979518
46.0057507188       2.65532296038
46.5058132267       2.70461863539
47.0058757345       2.74408673467
47.5059382423       2.77327378002
48.0060007501       2.79184157222
48.5060632579       2.79957371374
49.0061257657       2.79637980666
49.5061882735       2.78229721173
50.0062507813       2.757490321
50.5063132892       2.72224736359
51.006375797       2.67697483149
51.5064383048       2.62218967605
52.0065008126       2.55850948475
52.5065633204       2.48664089892
53.0066258282       2.40736657622
53.506688336       2.32153103368
54.0067508439       2.23002572842
54.5068133517       2.13377374328
55.0068758595       2.03371444222
55.5069383673       1.93078844806
56.0070008751       1.82592327153
56.5070633829       1.72001988894
57.0071258907       1.61394052568
57.5071883985       1.50849785773
58.0072509064       1.40444579374
58.5073134142       1.30247194893
59.007375922       1.20319187027
59.5074384298       1.10714502265
60.0075009376       1.01479249856
60.5075634454       0.92651637158
61.0076259532       0.842620577274
61.5076884611       0.763333174476
62.0077509689       0.688809816808
62.5078134767       0.619138247636
63.0078759845       0.554343622462
63.5079384923       0.494394460039
64.0080010001       0.439209026966
64.5080635079       0.388661969378
65.0081260158       0.342591018817
65.5081885236       0.300803616388
66.0082510314       0.263083319111
66.5083135392       0.229195873786
67.008376047       0.198894866014
67.5084385548       0.171926874282
68.0085010626       0.148036080566
68.5085635704       0.1269683091
69.0086260783       0.108474483356
69.5086885861       0.0923135074949
70.0087510939       0.0782545923473
70.5088136017       0.0660790573469
71.0088761095       0.0555816486397
71.5089386173       0.0465714200559
72.0090011251       0.0388722278258
72.509063633       0.0323228921376
73.0091261408       0.0267770791018
73.5091886486       0.0221029557139
74.0092511564       0.0181826682829
74.5093136642       0.0149116918127
75.009376172       0.0121980942667
75.5094386798       0.00996175576546
76.0095011876       0.00813357878676
76.5095636955       0.00665472155016
77.0096262033       0.0054758831205
77.5096887111       0.00455666547859
78.0097512189       0.00386503495317
78.5098137267       0.00337690302962
79.0098762345       0.00307584465091
79.5099387423       0.00295297067617
80.0100012502       0.00300697010386
80.510063758       0.00324433691018
81.0101262658       0.00367979578647
81.5101887736       0.00433694054423
82.0102512814       0.00524909833444
82.5103137892       0.00646043192476
83.010376297       0.0080272909039
83.5104388049       0.0100198206393
84.0105013127       0.0125238349001
84.5105638205       0.0156429540735
85.0106263283       0.019501005661
85.5106888361       0.0242446770771
86.0107513439       0.0300464025472
86.5108138517       0.0371074560315
87.0108763595       0.045661210544
87.5109388674       0.05597651104
88.0110013752       0.0683610933326
88.511063883       0.0831649654869
89.0111263908       0.100783651178
89.5111888986       0.12166117703
90.0112514064       0.146292668554
90.5113139142       0.175226402706
91.0113764221       0.209065150049
91.5114389299       0.24846662704
92.0115014377       0.294142870006
92.5115639455       0.346858338013
93.0116264533       0.407426553133
93.5116889611       0.476705094644
94.0117514689       0.555588779331
94.5118139767       0.645000884158
95.0118764846       0.745882300703
95.5119389924       0.859178553171
96.0120015002       0.985824663521
96.512064008       1.12672790779
97.0121265158       1.28274857621
97.5121890236       1.45467892487
98.0122515314       1.64322058646
98.5123140393       1.84896079032
99.0123765471       2.07234782363
99.5124390549       2.3136662452
100.012501563       2.57301243446
100.512564071       2.85027112107
101.012626578       3.14509358791
101.512689086       3.45687827168
102.012751594       3.78475449556
102.512814102       4.12757005635
103.01287661       4.48388335128
103.512939117       4.85196066657
104.013001625       5.22977916039
104.513064133       5.61503595823
105.013126641       6.00516364056
105.513189149       6.39735224397
106.013251656       6.78857772257
106.513314164       7.17563663022
107.013376672       7.55518659347
107.51343918       7.9237919551
108.013501688       8.277973787
108.513564196       8.61426330505
109.013626703       8.92925757433
109.513689211       9.21967627796
110.013751719       9.48241824052
110.513814227       9.7146163537
111.013876735       9.91368954953
111.513939242       10.0773905066
112.01400175       10.203847858
112.514064258       10.2916017926
113.014126766       10.3396321036
113.514189274       10.3473779309
114.014251781       10.3147486617
114.514314289       10.2421256955
115.014376797       10.1303550233
115.514439305       9.9807308236
116.014501813       9.79497052115
116.514564321       9.57518197793
117.014626828       9.32382369508
117.514689336       9.04365907449
118.014751844       8.73770592952
118.514814352       8.40918253214
119.01487686       8.06145154109
119.514939367       7.69796316916
120.015001875       7.32219891998
120.515064383       6.93761715686
121.015126891       6.54760166316
121.515189399       6.15541421965
122.015251906       5.76415206619
122.515314414       5.37671093852
123.015376922       4.99575418363
123.51543943       4.62368826603
124.015501938       4.26264478847
124.515564446       3.91446897109
125.015626953       3.58071436787
125.515689461       3.26264345247
126.015751969       2.96123358209
126.515814477       2.67718774828
127.015876985       2.41094945069
127.515939492       2.16272098254
128.016002       1.9324843952
128.516064508       1.7200244111
129.016127016       1.52495257801
129.516189524       1.34673199923
130.016252032       1.18470203164
130.516314539       1.03810241191
131.016377047       0.906096347826
131.516439555       0.787792193151
132.016502063       0.682263406825
132.516564571       0.588566578615
133.016627078       0.505757380457
133.516689586       0.432904373974
134.016752094       0.369100668352
134.516814602       0.31347347792
135.01687711       0.265191674777
135.516939617       0.223471468424
136.017002125       0.187580371839
136.517064633       0.156839632169
137.017127141       0.130625315001
137.517189649       0.108368234839
138.017252157       0.0895529220299
138.517314664       0.0737158089328
139.017377172       0.0604428067713
139.51743968       0.0493664302705
140.017502188       0.0401626109267
140.517564696       0.0325473223558
141.017627203       0.0262731234316
141.517689711       0.021125707445
142.017752219       0.0169205288127
142.517814727       0.0134995633142
143.017877235       0.0107282437097
143.517939742       0.00849260005693
144.01800225       0.00669662318327
144.518064758       0.00525986058476
145.018127266       0.00411524646214
145.518189774       0.00320716156893
146.018252282       0.00248971390441
146.518314789       0.00192522788433
147.018377297       0.00148292730317
147.518439805       0.00113779599877
148.018502313       0.000869599484801
148.518564821       0.000662050779243
149.018627328       0.000502104091588
149.518689836       0.0003793608175
150.018752344       0.000285573322607
150.518814852       0.000214233189908
151.01887736       0.000160231886567
151.518939867       0.0001195831197
152.019002375       8.91974551226e-05
152.519064883       6.67010381685e-05
153.019127391       5.0291462859e-05
153.519189899       3.86249753764e-05
154.019252407       3.07302683163e-05
154.519314914       2.59451285933e-05
155.019377422       2.38731545739e-05
155.51943993       2.43586720411e-05
156.019502438       2.74788727059e-05
156.519564946       3.35530950473e-05
157.019627453       4.31700897426e-05
157.519689961       5.72350873849e-05
158.019752469       7.70395427569e-05
158.519814977       0.000104357596926
159.019877485       0.000141574605622
159.519939992       0.000191854559198
160.0200025       0.000259354894058
160.520065008       0.000349499093099
161.020127516       0.000469319614319
161.520190024       0.00062788608664
162.020252532       0.000836836375057
162.520315039       0.00111103103624
163.020377547       0.00146935483737
163.520440055       0.00193569235187
164.020502563       0.00254010810876
164.520565071       0.00332026526059
165.020627578       0.0043231201189
165.520690086       0.00560693301887
166.020752594       0.00724363860672
166.520815102       0.00932162054284
167.02087761       0.0119489364826
167.520940118       0.0152570386941
168.021002625       0.0194050334166
168.521065133       0.0245845176369
169.021127641       0.0310250249313
169.521190149       0.0390001019327
170.021252657       0.0488340234084
170.521315164       0.0609091364711
171.021377672       0.0756738027534
171.52144018       0.0936508812259
172.021502688       0.115446663612
172.521565196       0.141760139137
173.021627703       0.17339242589
173.521690211       0.211256162984
174.021752719       0.256384611657
174.521815227       0.309940165789
175.021877735       0.373221924298
175.521940243       0.447671931472
176.02200275       0.534879648575
176.522065258       0.636584183502
177.022127766       0.754673777509
177.522190274       0.891182032087
178.022252782       1.04828035768
178.522315289       1.2282661423
179.022377797       1.43354617459
179.522440305       1.6666149154
180.022502813       1.93002729567
180.522565321       2.2263658284
181.022627828       2.55820195794
181.522690336       2.92805173152
182.022752844       3.33832606214
182.522815352       3.79127605746
183.02287786       4.28893411013
183.522940368       4.83305167609
184.023002875       5.42503490184
184.523065383       6.06587949082
185.023127891       6.75610641429
185.523190399       7.49570026366
186.023252907       8.28405219909
186.523315414       9.11990956377
187.023377922       10.0013342947
187.52344043       10.9256722623
188.023502938       11.8895356028
188.523565446       12.8887999699
189.023627953       13.9186184159
189.523690461       14.9734533223
190.023752969       16.0471274401
190.523815477       17.1328946685
191.023877985       18.2235307162
191.523940493       19.3114432559
192.024003       20.3888006171
192.524065508       21.4476774802
193.024128016       22.4802154528
193.524190524       23.4787958485
194.024253032       24.4362214597
194.524315539       25.3459036479
195.024378047       26.2020506786
195.524440555       26.9998529108
196.024503063       27.7356602459
196.524565571       28.4071471321
197.024628079       29.0134604349
197.524690586       29.5553456155
198.024753094       30.0352469048
198.524815602       30.4573775265
199.02487811       30.8277564926
199.524940618       31.1542090652
200.025003125       31.4463286363
200.525065633       31.715398509
201.025128141       31.9742728582
201.525190649       32.2372169838
202.025253157       32.5197078416
202.525315664       32.8381967154
203.025378172       33.2098367791
203.52544068       33.6521791609
204.025503188       34.182841956
204.525565696       34.8191574224
205.025628204       35.5778033201
205.525690711       36.4744250043
206.025753219       37.5232554354
206.525815727       38.7367407238
207.025878235       40.1251791402
207.525940743       41.6963817115
208.02600325       43.4553625406
208.526065758       45.4040668407
209.026128266       47.5411443413
209.526190774       49.8617751938
210.026253282       52.3575547734
210.526315789       55.0164428417
211.026378297       57.8227814031
211.526440805       60.7573842729
212.026503313       63.7976998884
212.526565821       66.9180472757
213.026628329       70.0899233514
213.526690836       73.2823779537
214.026753344       76.4624511894
214.526815852       79.5956659236
215.02687836       82.646566573
215.526940868       85.579293857
216.027003375       88.35818387
216.527065883       90.9483788134
217.027128391       93.3164360207
217.527190899       95.4309215581
218.027253407       97.2629747132
218.527315914       98.7868301165
219.027378422       99.9802850655
219.52744093       100.825100835
220.027503438       101.307328319
220.527565946       101.417550234
221.027628454       101.151034221
221.527690961       100.507793544
222.027753469       99.4925544393
222.527815977       98.1146317084
223.027878485       96.387716477
223.527940993       94.3295823611
224.0280035       91.9617183207
224.528066008       89.3088982695
225.028128516       86.3986989632
225.528191024       83.2609787606
226.028253532       79.9273305271
226.52831604       76.4305221994
227.028378547       72.8039383799
227.528441055       69.0810357693
228.028503563       65.2948243408
228.528566071       61.4773849264
229.028628579       57.6594324004
229.528691086       53.8699319563
230.028753594       50.1357741565
230.528816102       46.4815125511
231.02887861       42.9291657796
231.528941118       39.4980842535
232.029003625       36.2048798171
232.529066133       33.0634152522
233.029128641       30.0848491617
233.529191149       27.2777306648
234.029253657       24.6481374873
234.529316165       22.199850424
235.029378672       19.9345568005
235.52944118       17.8520754436
236.029503688       15.950595771
236.529566196       14.2269239005
237.029628704       12.6767291386
237.529691211       11.2947847902
238.029753719       10.0751979195
238.529816227       9.01162345043
239.029878735       8.09745878299
239.529941243       7.32601591663
240.03000375       6.69066886569
240.530066258       6.18497492496
241.030128766       5.80276907084
241.530191274       5.53823145911
242.030253782       5.38592859615
242.53031629       5.34082931275
243.030378797       5.39829715749
243.530441305       5.55406125098
244.030503813       5.80416800456
244.530566321       6.14491641016
245.030628829       6.57277985369
245.530691336       7.08431759551
246.030753844       7.67607919794
246.530816352       8.34450526219
247.03087886       9.08582786492
247.530941368       9.89597405488
248.031003875       10.7704756817
248.531066383       11.7043886788
249.031128891       12.6922247077
249.531191399       13.7278977927
250.031253907       14.8046882297
250.531316415       15.9152256444
251.031378922       17.0514926118
251.53144143       18.2048497239
252.031503938       19.366082436
252.531566446       20.5254694238
253.031628954       21.6728715774
253.531691461       22.7978401443
254.031753969       23.8897419464
254.531816477       24.9378990381
255.031878985       25.9317396795
255.531941493       26.8609570739
256.032004001       27.7156719931
256.532066508       28.4865951913
257.032129016       29.1651854061
257.532191524       29.7437987701
258.032254032       30.2158256058
258.53231654       30.5758108623
259.032379047       30.8195548463
259.532441555       30.9441914155
260.032504063       30.9482414021
260.532566571       30.8316397129
261.032629079       30.5957352782
261.532691586       30.2432637773
262.032754094       29.7782938214
262.532816602       29.2061479998
263.03287911       28.5333008764
263.532941618       27.7672566212
264.033004126       26.9164094741
264.533066633       25.9898906366
265.033129141       24.9974054669
265.533191649       23.9490650056
266.033254157       22.855215883
266.533316665       21.7262725574
267.033379172       20.572555616
267.53344168       19.4041395452
268.033504188       18.2307129661
268.533566696       17.0614538487
269.033629204       15.9049216824
269.533691711       14.7689680187
270.033754219       13.6606662309
270.533816727       12.5862607723
271.033879235       11.5511356852
