#  x                 y             frequency           intensity
0.0       2.23042174359e-10       53.04       0.78254
0.500062507813       3.3691614323e-10       124.27       4.43724
1.00012501563       5.06943739245e-10       203.50       1.93481
1.50018752344       7.59802678457e-10       227.12       23.45817
2.00025003125       1.1343445518e-09       288.12       100.49652
2.50031253907       1.68691139459e-09       327.18       20.49036
3.00037504688       2.49886426828e-09       369.83       4.09918
3.50043755469       3.68719558659e-09       442.54       37.72205
4.00050006251       5.41941983509e-09       495.90       6.60619
4.50056257032       7.93437149561e-09       578.47       52.06623
5.00062507813       1.15711194783e-08       640.79       51.48442
5.50068758595       1.68089791363e-08       723.24       70.25341
6.00075009376       2.43226231679e-08       796.75       147.85867
6.50081260158       3.50576335768e-08       870.56       4.73563
7.00087510939       5.03335887741e-08       930.19       19.88740
7.5009376172       7.19840551798e-08       1018.55       54.18014
8.00100012502       1.02545789684e-07       1061.54       72.17372
8.50106263283       1.45513226971e-07       1124.84       221.51095
9.00112514064       2.05679128297e-07       1170.06       26.36387
9.50118764846       2.89588350449e-07       1180.72       77.08151
10.0012501563       4.06139345065e-07       1262.41       2.65793
10.5013126641       5.67377558556e-07       1311.26       7.97881
11.0013751719       7.89536763807e-07       1351.90       11.36484
11.5014376797       1.09439896388e-06       1377.73       21.90711
12.0015001875       1.511061367e-06       1400.90       14.09270
12.5015626953       2.07822059426e-06       1418.82       15.71813
13.0016252032       2.84711034358e-06       1497.06       2.37020
13.501687711       3.88525982256e-06       1628.13       74.08226
14.0017502188       5.28127701736e-06       1817.68       299.01258
14.5018127266       7.15090390448e-06       2875.59       60.58021
15.0018752344       9.64464060428e-06       3050.84       28.30967
15.5019377422       1.29572926791e-05       3108.01       16.86793
16.00200025       1.73398605938e-05       3520.43       3.02719
16.5020627578       2.3114262838e-05       3609.23       14.21191
17.0021252657       3.06914640893e-05       3723.55       68.43563
17.5021877735       4.05936663767e-05       3795.61       27.52043
18.0022502813       5.34813132448e-05
18.5023127891       7.018575252e-05
19.0023752969       9.17484997468e-05
19.5024378047       0.000119468138084
20.0025003125       0.000154955976781
20.5025628204       0.000200201663485
21.0026253282       0.000257649998607
21.502687836       0.000330290224464
22.0027503438       0.00042175904854
22.5028128516       0.000536458598306
23.0028753594       0.000679690383118
23.5029378672       0.000857806144557
24.003000375       0.00107837619781
24.5030628829       0.00135037549113
25.0031253907       0.001684387127
25.5031878985       0.0020928224877
26.0032504063       0.00259015638304
26.5033129141       0.00319317478613
27.0033754219       0.00392123174498
27.5034379297       0.00479651096261
28.0035004376       0.00584428633903
28.5035629454       0.00709317448843
29.0036254532       0.00857537091477
29.503687961       0.0103268601891
30.0037504688       0.0123875891723
30.5038129766       0.014801591125
31.0038754844       0.0176170475129
31.5039379922       0.020886273517
32.0040005001       0.0246656127848
32.5040630079       0.0290152268778
33.0041255157       0.0339987652728
33.5041880235       0.0396829027299
34.0042505313       0.0461367324113
34.5043130391       0.0534310053773
35.0043755469       0.0616372100264
35.5044380548       0.0708264886939
36.0045005626       0.081068392954
36.5045630704       0.0924294841381
37.0046255782       0.104971791082
37.504688086       0.118751143044
38.0047505938       0.133815401917
38.5048131016       0.150202624097
39.0048756095       0.167939188461
39.5049381173       0.187037932569
40.0050006251       0.207496344224
40.5050631329       0.22929485956
41.0051256407       0.252395321698
41.5051881485       0.276739655409
42.0052506563       0.302248812962
42.5053131641       0.328822044251
43.005375672       0.356336540254
43.5054381798       0.384647492875
44.0055006876       0.413588606246
44.5055631954       0.442973084744
45.0056257032       0.472595111582
45.505688211       0.502231818983
46.0057507188       0.531645737209
46.5058132267       0.560587695343
47.0058757345       0.588800132258
47.5059382423       0.616020762256
48.0060007501       0.64198652673
48.5060632579       0.666437751704
49.0061257657       0.689122421441
49.5061882735       0.709800471171
50.0062507813       0.728247997564
50.5063132892       0.74426128418
51.006375797       0.757660541016
51.5064383048       0.768293262278
52.0065008126       0.776037114779
52.5065633204       0.780802280482
53.0066258282       0.782533190493
53.506688336       0.781209603677
54.0067508439       0.776847000648
54.5068133517       0.769496282389
55.0068758595       0.759242781724
55.5069383673       0.746204614468
56.0070008751       0.730530414815
56.5070633829       0.712396515651
57.0071258907       0.692003648584
57.5071883985       0.669573249963
58.0072509064       0.645343467831
58.5073134142       0.619564970212
59.007375922       0.592496657445
59.5074384298       0.564401380278
60.0075009376       0.535541761472
60.5075634454       0.506176211781
61.0076259532       0.476555221903
61.5076884611       0.446918000653
62.0077509689       0.41748951672
62.5078134767       0.38847798745
63.0078759845       0.360072843708
63.5079384923       0.332443185442
64.0080010001       0.305736728708
64.5080635079       0.280079231972
65.0081260158       0.255574377836
65.5081885236       0.232304076333
66.0082510314       0.210329147696
66.5083135392       0.18969033623
67.008376047       0.17040960261
67.5084385548       0.152491639617
68.0085010626       0.135925555784
68.5085635704       0.12068667266
69.0086260783       0.106738384036
69.5086885861       0.0940340294295
70.0087510939       0.0825187389759
70.5088136017       0.0721312125028
71.0088761095       0.0628054015887
71.5089386173       0.0544720696551
72.0090011251       0.0470602113345
72.509063633       0.0404983183337
73.0091261408       0.0347154845745
73.5091886486       0.0296423484425
74.0092511564       0.0252118743922
74.5093136642       0.0213599799008
75.009376172       0.0180260167974
75.5094386798       0.0151531183322
76.0095011876       0.012688425012
76.5095636955       0.0105832032639
77.0096262033       0.0087928714681
77.5096887111       0.00727694788638
78.0097512189       0.00599893459531
78.5098137267       0.00492615078508
79.0098762345       0.00402952779327
79.5099387423       0.00328337707853
80.0100012502       0.00266514107323
80.510063758       0.00215513554784
81.0101262658       0.001736290825
81.5101887736       0.00139389794161
82.0102512814       0.00111536470712
82.5103137892       0.000889985571533
83.010376297       0.000708728315231
83.5104388049       0.000564039816711
84.0105013127       0.000449672548758
84.5105638205       0.00036053299969
85.0106263283       0.000292552911471
85.5106888361       0.000242584065021
86.0107513439       0.000208317317387
86.5108138517       0.000188226696506
87.0108763595       0.000181539576697
87.5109388674       0.000188234280683
88.0110013752       0.000209066869398
88.511063883       0.00024562937568
89.0111263908       0.000300442296918
89.5111888986       0.000377084767354
90.0112514064       0.000480366462697
90.5113139142       0.000616545923937
91.0113764221       0.000793600595281
91.5114389299       0.00102155441928
92.0115014377       0.00131286928111
92.5115639455       0.00168290689798
93.0116264533       0.00215046785637
93.5116889611       0.00273841435212
94.0117514689       0.00347438272135
94.5118139767       0.00439159099752
95.0118764846       0.00552974542086
95.5119389924       0.00693604799156
96.0120015002       0.00866630473252
96.512064008       0.010786131252
97.0121265158       0.0133722484273
97.5121890236       0.0165138565412
98.0122515314       0.0203140709877
98.5123140393       0.0248913967563
99.0123765471       0.0303812123628
99.5124390549       0.0369372268303
100.012501563       0.0447328658912
100.512564071       0.0539625359803
101.012626578       0.0648427070891
101.512689086       0.0776127484477
102.012751594       0.0925354446729
102.512814102       0.109897114852
103.01287661       0.130007253475
103.512939117       0.15319761064
104.013001625       0.179820629947
104.513064133       0.210247166521
105.013126641       0.24486341488
105.513189149       0.28406698741
106.013251656       0.328262099085
106.513314164       0.37785383302
107.013376672       0.433241484266
107.51343918       0.494811005941
108.013501688       0.56292661165
108.513564196       0.637921620849
109.013626703       0.720088668313
109.513689211       0.809669434266
110.013751719       0.906844086796
110.513814227       1.01172066156
111.013876735       1.12432463402
111.513939242       1.24458896494
112.01400175       1.37234491942
112.514064258       1.50731397133
113.014126766       1.64910110787
113.514189274       1.79718984198
114.014251781       1.95093922219
114.514314289       2.10958310044
115.014376797       2.27223187817
115.514439305       2.43787689964
116.014501813       2.60539760076
116.514564321       2.77357145219
117.014626828       2.94108665949
117.514689336       3.10655750294
118.014751844       3.2685421175
118.514814352       3.42556243256
119.01487686       3.5761259143
119.514939367       3.71874868383
120.015001875       3.8519795246
120.515064383       3.9744242453
121.015126891       4.08476983257
121.515189399       4.18180781206
122.015251906       4.26445623886
122.515314414       4.33177975867
123.015376922       4.38300722049
123.51543943       4.41754637694
124.015501938       4.43499528073
124.515564446       4.43515007054
125.015626953       4.41800893553
125.515689461       4.38377215054
126.015751969       4.33283818126
126.515814477       4.26579596497
127.015876985       4.18341357624
127.515939492       4.08662358233
128.016002       3.9765054788
128.516064508       3.85426566751
129.016127016       3.72121549595
129.516189524       3.57874791557
130.016252032       3.42831333815
130.516314539       3.27139527152
131.016377047       3.10948630109
131.516439555       2.94406495139
132.016502063       2.77657391512
132.516564571       2.60840007791
133.016627078       2.44085669706
133.516689586       2.27516801612
134.016752094       2.11245651633
134.516814602       1.95373292369
135.01687711       1.79988901035
135.516939617       1.65169315279
136.017002125       1.50978853978
136.517064633       1.37469386205
137.017127141       1.24680626431
137.517189649       1.12640629964
138.017252157       1.01366459703
138.517314664       0.908649934735
139.017377172       0.811338404589
139.51743968       0.72162335537
140.017502188       0.639325814643
140.517564696       0.564205107939
141.017627203       0.495969419526
141.517689711       0.434286069205
142.017752219       0.378791312885
142.517814727       0.329099509744
143.017877235       0.284811534189
143.517939742       0.245522345374
144.01800225       0.210827659725
144.518064758       0.180329701904
145.018127266       0.153642036347
145.518189774       0.130393504407
146.018252282       0.110231311164
146.518314789       0.0928233209254
147.018377297       0.0778596314923
147.518439805       0.0650535047011
148.018502313       0.0541417347387
148.518564821       0.044884536825
149.018627328       0.0370650373879
149.518689836       0.0304884433313
150.018752344       0.0249809628546
150.518814852       0.0203885439618
151.01887736       0.0165754897101
151.518939867       0.013423001738
152.019002375       0.0108276960134
152.519064883       0.0087001272911
153.019127391       0.00696335169014
153.519189899       0.00555155023838
154.019252407       0.00440873029541
154.519314914       0.00348751652231
155.019377422       0.00274803854173
155.51943993       0.0021569186254
156.019502438       0.00168635962857
156.519564946       0.00131333091964
157.019627453       0.0010188481677
157.519689961       0.000787341486975
158.019752469       0.000606105524056
158.519814977       0.000464824543154
159.019877485       0.000355165347122
159.519939992       0.000270430906805
160.0200025       0.000205267800169
160.520065008       0.000155420936323
161.020127516       0.00011752951462
161.520190024       8.89587100896e-05
162.020252532       6.76621542973e-05
162.520315039       5.20708730264e-05
163.020377547       4.10049320597e-05
163.520440055       3.36046179851e-05
164.020502563       2.92785348702e-05
164.520565071       2.76665257417e-05
165.020627578       2.86158287636e-05
165.520690086       3.21693525101e-05
166.020752594       3.85654048614e-05
166.520815102       4.82486385911e-05
167.02087761       6.18923866435e-05
167.520940118       8.0432954004e-05
168.021002625       0.000105116812664
168.521065133       0.000137562011849
169.021127641       0.000179835465974
169.521190149       0.000234548114149
170.021252657       0.000304970251171
170.521315164       0.000395169601881
171.021377672       0.00051017493611
171.52144018       0.000656168184731
172.021502688       0.000840708099613
172.521565196       0.00107298847928
173.021627703       0.00136413383273
173.521690211       0.00172753504841
174.021752719       0.00217922714464
174.521815227       0.00273831047169
175.021877735       0.00342741578552
175.521940243       0.00427321239173
176.02200275       0.00530695704396
176.522065258       0.00656507945854
177.022127766       0.00808979817045
177.522190274       0.00992975801159
178.022252782       0.0121406777617
178.522315289       0.0147859935442
179.022377797       0.0179374803734
179.522440305       0.0216758309834
180.022502813       0.0260911677937
180.522565321       0.0312834607102
181.022627828       0.0373628205818
181.522690336       0.0444496356999
182.022752844       0.052674516927
182.522815352       0.0621780160782
183.02287786       0.0731100822551
183.522940368       0.0856292221532
184.023002875       0.09990133312
184.523065383       0.116098182096
185.023127891       0.13439550966
185.523190399       0.15497074631
186.023252907       0.178000337843
186.523315414       0.203656688248
187.023377922       0.232104741727
187.52344043       0.263498240135
188.023502938       0.297975707938
188.523565446       0.335656233396
189.023627953       0.376635131584
189.523690461       0.420979591463
190.023752969       0.468724425052
190.523815477       0.519868050967
191.023877985       0.574368856726
191.523940493       0.632142093426
192.024003       0.693057462163
192.524065508       0.756937553287
193.024128016       0.823557296719
193.524190524       0.89264457389
194.024253032       0.963882128992
194.524315539       1.03691089925
195.024378047       1.11133486084
195.524440555       1.1867274592
196.024503063       1.2626396603
196.524565571       1.33860962338
197.024628079       1.4141739567
197.524690586       1.48888047675
198.024753094       1.56230234868
198.524815602       1.63405344308
199.02487811       1.70380470195
199.524940618       1.77130126613
200.025003125       1.8363800779
200.525065633       1.89898763777
201.025128141       1.9591975626
201.525190649       2.01722756564
202.025253157       2.07345545672
202.525315664       2.12843374402
203.025378172       2.18290240728
203.52544068       2.23779940712
204.025503188       2.29426849553
204.525565696       2.35366389998
205.025628204       2.41755146794
205.525690711       2.48770588068
206.025753219       2.56610357525
206.525815727       2.65491105356
207.025878235       2.75646830662
207.525940743       2.87326714318
208.02600325       3.00792428411
208.526065758       3.16314916944
209.026128266       3.34170652329
209.526190774       3.54637383319
210.026253282       3.77989402498
210.526315789       4.04492375004
211.026378297       4.34397784752
211.526440805       4.67937069674
212.026503313       5.05315533124
212.526565821       5.46706134094
213.026628329       5.92243273753
213.526690836       6.42016709448
214.026753344       6.96065739007
214.526815852       7.54373807336
215.02687836       8.1686369311
215.526940868       8.83393435317
216.027003375       9.53753156775
216.527065883       10.276629342
217.027128391       11.0477185147
217.527190899       11.8465835444
218.027253407       12.6683200189
218.527315914       13.5073667825
219.027378422       14.3575530058
219.52744093       15.2121601477
220.027503438       16.0639983602
220.527565946       16.9054964702
221.027628454       17.7288042521
221.527690961       18.5259052995
222.027753469       19.2887384204
222.527815977       20.0093251492
223.027878485       20.6799006808
223.527940993       21.2930453261
224.0280035       21.8418134581
224.528066008       22.319856872
225.028128516       22.7215395424
225.528191024       23.0420409018
226.028253532       23.2774450106
226.52831604       23.4248133165
227.028378547       23.4822391041
227.528441055       23.4488822125
228.028503563       23.324983113
228.528566071       23.1118559968
229.028628579       22.8118610832
229.528691086       22.428356921
230.028753594       21.9656339838
230.528816102       21.4288313515
231.02887861       20.8238386923
231.528941118       20.1571861152
232.029003625       19.4359247272
232.529066133       18.6675009006
233.029128641       17.8596273372
233.529191149       17.0201539906
234.029253657       16.1569418005
234.529316165       15.2777419932
235.029378672       14.3900834291
235.52944118       13.5011701473
236.029503688       12.6177908703
236.529566196       11.7462418192
237.029628704       10.8922637589
237.529691211       10.060993757
238.029753719       9.25693172594
238.529816227       8.48392142023
239.029878735       7.74514521179
239.529941243       7.0431316569
240.03000375       6.37977461622
240.530066258       5.7563624947
241.030128766       5.17361603262
241.530191274       4.63173300257
242.030253782       4.13043814661
242.53031629       3.66903671833
243.030378797       3.24647007084
243.530441305       2.86137184532
244.030503813       2.51212345945
244.530566321       2.19690776163
245.030628829       1.91375989793
245.530691336       1.66061462678
246.030753844       1.4353495044
246.530816352       1.23582354561
247.03087886       1.0599111361
247.530941368       0.905531127554
248.031003875       0.770671185676
248.531066383       0.653407579413
249.031128891       0.551920697875
249.531191399       0.464506659318
250.031253907       0.389585434899
250.531316415       0.325705950266
251.031378922       0.271548652265
251.53144143       0.225926038293
252.031503938       0.187781644471
252.531566446       0.156187978161
253.031628954       0.130343862656
253.531691461       0.109571639181
254.031753969       0.0933146453018
254.531816477       0.0811353609708
255.031878985       0.0727145845384
255.531941493       0.0678519718507
256.032004001       0.0664682420206
256.532066508       0.0686093233721
257.032129016       0.0744526816708
257.532191524       0.0843160390034
258.032254032       0.0986686541844
258.53231654       0.118145292718
259.032379047       0.143562964369
259.532441555       0.175940447453
260.032504063       0.216520549284
260.532566571       0.266794970219
261.032629079       0.328531543086
261.532691586       0.40380350979
262.032754094       0.495020372134
262.532816602       0.604959715211
263.03287911       0.73679925032
263.532941618       0.89414816293
264.033004126       1.08107668336
264.533066633       1.30214262833
265.033129141       1.56241349679
265.533191649       1.86748255021
266.033254157       2.22347717486
266.533316665       2.63705772064
267.033379172       3.11540494728
