#  x                 y             frequency           intensity
0.0       2.98293930449e-22       80.66       3.54111
0.500062507813       5.59118121926e-22       123.29       50.04657
1.00012501563       1.04391667229e-21       188.05       25.00534
1.50018752344       1.94147235864e-21       230.29       10.77766
2.00025003125       3.59666263172e-21       277.13       16.66394
2.50031253907       6.63699219225e-21       334.70       1.59702
3.00037504688       1.21996121475e-20       388.86       9.30588
3.50043755469       2.23369490544e-20       480.80       95.21063
4.00050006251       4.07384777198e-20       581.30       9.51093
4.50056257032       7.40097355771e-20       732.03       3.23536
5.00062507813       1.33929430303e-19       767.64       15.96754
5.50068758595       2.41416140926e-19       810.83       13.03118
6.00075009376       4.33470651236e-19       836.79       81.27510
6.50081260158       7.7527576131e-19       877.93       130.61629
7.00087510939       1.38119763802e-18       906.06       12.37522
7.5009376172       2.4510860646e-18       991.59       24.14925
8.00100012502       4.33275774905e-18       1025.79       101.21638
8.50106263283       7.62910105285e-18       1121.10       17.28655
9.00112514064       1.33809035489e-17       1150.89       12.00972
9.50118764846       2.33776378222e-17       1225.53       7.30499
10.0012501563       4.0683557763e-17       1261.29       54.28015
10.5013126641       7.05245520874e-17       1310.04       4.12233
11.0013751719       1.21776885141e-16       1383.20       9.05192
11.5014376797       2.09455852179e-16       1394.53       92.17791
12.0015001875       3.58858510114e-16       1403.59       6.17063
12.5015626953       6.12430926297e-16       1413.69       205.50015
13.0016252032       1.0411039401e-15       1497.37       4.82309
13.501687711       1.76292639321e-15       1666.78       30.81308
14.0017502188       2.97356463085e-15       1831.67       342.42966
14.5018127266       4.99601459038e-15       3048.50       28.15415
15.0018752344       8.36128692004e-15       3092.89       10.48423
15.5019377422       1.39388090362e-14       3104.25       15.74096
16.00200025       2.3146286414e-14       3492.23       3.19007
16.5020627578       3.82860084081e-14       3511.86       327.82788
17.0021252657       6.30814940695e-14       3566.23       8.63808
17.5021877735       1.035301789e-13       3782.07       42.04047
18.0022502813       1.69252491699e-13
18.5023127891       2.75617183565e-13
19.0023752969       4.47075244771e-13
19.5024378047       7.2236728385e-13
20.0025003125       1.16262224145e-12
20.5025628204       1.86389866975e-12
21.0026253282       2.97652190381e-12
21.502687836       4.73477101408e-12
22.0027503438       7.50225791924e-12
22.5028128516       1.18409927176e-11
23.0028753594       1.86160420123e-11
23.5029378672       2.91534327806e-11
24.003000375       4.54773512568e-11
24.5030628829       7.06648981609e-11
25.0031253907       1.09374335052e-10
25.5031878985       1.68628208852e-10
26.0032504063       2.58969215571e-10
26.5033129141       3.96158673268e-10
27.0033754219       6.03661264081e-10
27.5034379297       9.16263870388e-10
28.0035004376       1.38532262855e-09
28.5035629454       2.08633674718e-09
29.0036254532       3.12983180619e-09
29.503687961       4.67692822302e-09
30.0037504688       6.96151114866e-09
30.5038129766       1.03216577424e-08
31.0038754844       1.5243984491e-08
31.5039379922       2.24259399739e-08
32.0040005001       3.28629030407e-08
32.5040630079       4.79694024514e-08
33.0041255157       6.9747043748e-08
33.5041880235       1.01016057268e-07
34.0042505313       1.45733077349e-07
34.5043130391       2.09425215366e-07
35.0043755469       2.99780181865e-07
35.5044380548       4.27444742527e-07
36.0045005626       6.07099889328e-07
36.5045630704       8.58901657153e-07
37.0046255782       1.21040257968e-06
37.504688086       1.69910161835e-06
38.0047505938       2.37581149603e-06
38.5048131016       3.309083441e-06
39.0048756095       4.59099236208e-06
39.5049381173       6.34466264706e-06
40.0050006251       8.73400855476e-06
40.5050631329       1.1976276215e-05
41.0051256407       1.63581093731e-05
41.5051881485       2.22560211029e-05
42.0052506563       3.01623416031e-05
42.5053131641       4.07179305244e-05
43.005375672       5.47531932659e-05
43.5054381798       7.33392258802e-05
44.0055006876       9.78512331782e-05
44.5055631954       0.00013004671849
45.0056257032       0.000172161328661
45.505688211       0.000227025649261
46.0057507188       0.000298206674762
46.5058132267       0.000390178115391
47.0058757345       0.000508524131018
47.5059382423       0.000660181483072
48.0060007501       0.000853725442968
48.5060632579       0.00109970505957
49.0061257657       0.00141103353281
49.5061882735       0.00180343942405
50.0062507813       0.00229598420938
50.5063132892       0.00291165119851
51.006375797       0.00367801004443
51.5064383048       0.00462795990201
52.0065008126       0.00580055270097
52.5065633204       0.00724189592886
53.0066258282       0.00900613172792
53.506688336       0.0111564859622
54.0067508439       0.0137663771891
54.5068133517       0.0169205711772
55.0068758595       0.0207163617728
55.5069383673       0.0252647535942
56.0070008751       0.0306916163146
56.5070633829       0.0371387743131
57.0071258907       0.0447649894015
57.5071883985       0.0537467883896
58.0072509064       0.0642790816845
58.5073134142       0.0765755142323
59.007375922       0.0908684862242
59.5074384298       0.107408778464
60.0075009376       0.126464716482
60.5075634454       0.148320808775
61.0076259532       0.173275798226
61.5076884611       0.201640072253
62.0077509689       0.23373238659
62.5078134767       0.269875870233
63.0078759845       0.310393294787
63.5079384923       0.355601610401
64.0080010001       0.405805772252
64.5080635079       0.461291905975
65.0081260158       0.522319886819
65.5081885236       0.589115435122
66.0082510314       0.661861858937
66.5083135392       0.740691602468
67.008376047       0.825677785157
67.5084385548       0.916825939724
68.0085010626       1.01406617693
68.5085635704       1.11724601912
69.0086260783       1.22612415255
69.5086885861       1.34036534922
70.0087510939       1.45953680144
70.5088136017       1.58310609618
71.0088761095       1.71044103106
71.5089386173       1.84081144006
72.0090011251       1.97339315422
72.509063633       2.10727417267
73.0091261408       2.24146306267
73.5091886486       2.37489954583
74.0092511564       2.50646716337
74.5093136642       2.63500784735
75.009376172       2.7593381614
75.5094386798       2.87826691373
76.0095011876       2.99061379132
76.5095636955       3.09522861863
77.0096262033       3.19101080877
77.5096887111       3.27692855262
78.0097512189       3.35203728153
78.5098137267       3.41549694491
79.0098762345       3.46658766325
79.5099387423       3.50472335197
80.0100012502       3.52946295892
80.510063758       3.54051901899
81.0101262658       3.53776329961
81.5101887736       3.52122938972
82.0102512814       3.49111216894
82.5103137892       3.44776418045
83.010376297       3.39168901758
83.5104388049       3.32353191711
84.0105013127       3.24406782974
84.5105638205       3.15418730644
85.0106263283       3.05488059767
85.5106888361       2.94722040793
86.0107513439       2.83234378028
86.5108138517       2.71143360361
87.0108763595       2.5857002393
87.5109388674       2.45636375434
88.0110013752       2.32463722545
88.511063883       2.19171154528
89.0111263908       2.05874211849
89.5111888986       1.92683778481
90.0112514064       1.79705224984
90.5113139142       1.6703782445
91.0113764221       1.54774457298
91.5114389299       1.43001614763
92.0115014377       1.31799705033
92.5115639455       1.21243660286
93.0116264533       1.11403837607
93.5116889611       1.02347201833
94.0117514689       0.941387737865
94.5118139767       0.868433231516
95.0118764846       0.805272811988
95.5119389924       0.752608446962
96.0120015002       0.711202384591
96.512064008       0.681900999968
97.0121265158       0.665659454985
97.5121890236       0.663566718671
98.0122515314       0.676870446194
98.5123140393       0.707001162061
99.0123765471       0.755595137414
99.5124390549       0.824515293697
100.012501563       0.915869407551
100.512564071       1.03202483707
101.012626578       1.17561894112
101.512689086       1.34956432508
102.012751594       1.55704802334
102.512814102       1.80152372496
103.01287661       2.08669617101
103.512939117       2.41649690319
104.013001625       2.79505063004
104.513064133       3.226631602
105.013126641       3.71560955334
105.513189149       4.26638497885
106.013251656       4.88331376657
106.513314164       5.57062150156
107.013376672       6.33230808744
107.51343918       7.17204369298
108.013501688       8.09305741466
108.513564196       9.09802043837
109.013626703       10.1889258741
109.513689211       11.3669678088
110.013751719       12.6324224607
110.513814227       13.9845346041
111.013876735       15.4214126518
111.513939242       16.9399359142
112.01400175       18.5356775888
112.514064258       20.2028469549
113.014126766       21.9342540481
113.514189274       23.721299767
114.014251781       25.5539939093
114.514314289       27.421003068
115.014376797       29.3097296281
115.514439305       31.2064223319
116.014501813       33.0963180209
116.514564321       34.9638132632
117.014626828       36.7926636468
117.514689336       38.566207609
118.014751844       40.2676108019
118.514814352       41.8801262062
119.01487686       43.3873645257
119.514939367       44.7735688588
120.015001875       46.0238872749
120.515064383       47.1246367371
121.015126891       48.0635518357
121.515189399       48.8300120165
122.015251906       49.4152414229
122.515314414       49.8124760925
123.015376922       50.0170940538
123.51543943       50.0267048224
124.015501938       49.8411958727
124.515564446       49.4627348204
125.015626953       48.8957272569
125.515689461       48.1467313802
126.015751969       47.2243317357
126.515814477       46.1389754652
127.015876985       44.9027754295
127.515939492       43.5292853906
128.016002       42.0332530816
128.516064508       40.4303574436
129.016127016       38.7369365504
129.516189524       36.9697127859
130.016252032       35.1455216676
130.516314539       33.2810503637
131.016377047       31.3925914255
131.516439555       29.4958165921
132.016502063       27.605574743
132.516564571       25.7357172151
133.016627078       23.8989527846
133.516689586       22.1067336946
134.016752094       20.3691731979
134.516814602       18.6949942253
135.01687711       17.0915080038
135.516939617       15.5646207528
136.017002125       14.1188660062
136.517064633       12.7574596446
137.017127141       11.4823743848
137.517189649       10.2944302681
138.017252157       9.19339759582
138.517314664       8.17810879162
139.017377172       7.24657579301
139.51743968       6.39610979159
140.017502188       5.62344042444
140.517564696       4.92483185829
141.017627203       4.29619358269
141.517689711       3.73318412343
142.017752219       3.23130628663
142.517814727       2.78599293471
143.017877235       2.39268266486
143.517939742       2.04688510082
144.01800225       1.7442358109
144.518064758       1.48054112638
145.018127266       1.25181335032
145.518189774       1.05429701794
146.018252282       0.884486996771
146.518314789       0.739139300273
147.018377297       0.615275535776
147.518439805       0.510181922071
148.018502313       0.421403797047
148.518564821       0.346736497996
149.018627328       0.284213440975
149.518689836       0.232092156178
150.018752344       0.188838958146
150.518814852       0.153112846946
151.01887736       0.123749152724
151.518939867       0.0997433542623
152.019002375       0.0802354246365
152.519064883       0.0644949855443
153.019127391       0.0519074875922
153.519189899       0.0419615773856
154.019252407       0.0342377639921
154.519314914       0.0283984570629
155.019377422       0.0241794161687
155.51943993       0.0213826250462
156.019502438       0.0198705845829
156.519564946       0.0195620034782
157.019627453       0.0204288545247
157.519689961       0.0224947562189
158.019752469       0.0258346328024
158.519814977       0.0305755997478
159.019877485       0.0368990150893
159.519939992       0.0450436288931
160.0200025       0.0553097527157
160.520065008       0.0680643573854
161.020127516       0.0837469903184
161.520190024       0.102876382465
162.020252532       0.126057589732
162.520315039       0.153989484441
163.020377547       0.187472379398
163.520440055       0.227415531146
164.020502563       0.274844230917
164.520565071       0.330906152934
165.020627578       0.396876591685
165.520690086       0.474162184501
166.020752594       0.564302685348
166.520815102       0.66897033266
167.02087761       0.78996634082
167.520940118       0.929214044121
168.021002625       1.08874823643
168.521065133       1.27070028155
169.021127641       1.47727862066
169.521190149       1.71074437596
170.021252657       1.97338184428
170.521315164       2.26746379188
171.021377672       2.59521160072
171.52144018       2.95875047557
172.021502688       3.36006009769
172.521565196       3.80092130061
173.021627703       4.28285954098
173.521690211       4.80708613733
174.021752719       5.37443844376
174.521815227       5.98532030671
175.021877735       6.63964431247
175.521940243       7.33677746227
176.02200275       8.07549200259
176.522065258       8.85392318218
177.022127766       9.66953569866
177.522190274       10.5191005297
178.022252782       11.3986837144
178.522315289       12.3036484566
179.022377797       13.2286716679
179.522440305       14.1677757527
180.022502813       15.1143760715
180.522565321       16.0613441106
181.022627828       17.0010859443
181.522690336       17.9256351171
182.022752844       18.8267586117
182.522815352       19.6960741234
183.02287786       20.525176441
183.522940368       21.3057703686
184.023002875       22.0298073167
184.523065383       22.6896224594
185.023127891       23.2780692197
185.523190399       23.7886477979
186.023252907       24.2156245221
186.523315414       24.5541389601
187.023377922       24.8002959985
187.52344043       24.9512404514
188.023502938       25.0052122019
188.523565446       24.961580389
189.023627953       24.8208557145
189.523690461       24.5846805352
190.023752969       24.2557970143
190.523815477       23.8379941988
191.023877985       23.3360354566
191.523940493       22.755568223
192.024003       22.103018455
192.524065508       21.38547256
193.024128016       20.6105498405
193.524190524       19.7862686715
194.024253032       18.9209096998
194.524315539       18.0228793238
195.024378047       17.1005765828
195.524440555       16.162266369
196.024503063       15.2159615753
196.524565571       14.2693164337
197.024628079       13.3295328846
197.524690586       12.4032813769
198.024753094       11.4966370353
198.524815602       10.6150316759
199.02487811       9.76322170392
199.524940618       8.94527151668
200.025003125       8.16455166042
200.525065633       7.42375066857
201.025128141       6.72489924338
201.525190649       6.06940523845
202.025253157       5.45809775776
202.525315664       4.8912786047
203.025378172       4.36877929086
203.52544068       3.89002184189
204.025503188       3.45408171132
204.525565696       3.05975122421
205.025628204       2.70560211343
205.525690711       2.39004587313
206.025753219       2.11139082934
206.525815727       1.86789500835
207.025878235       1.65781406341
207.525940743       1.4794436936
208.02600325       1.33115615118
208.526065758       1.2114305817
209.026128266       1.1188770738
209.526190774       1.05225441077
210.026253282       1.01048161523
210.526315789       0.992643462048
211.026378297       0.997990204964
211.526440805       1.02593182183
212.026503313       1.07602713426
212.526565821       1.14796820246
213.026628329       1.24156043769
213.526690836       1.3566989148
214.026753344       1.49334140783
214.526815852       1.65147871292
215.02687836       1.83110286511
215.526940868       2.03217389936
216.027003375       2.25458584809
216.527065883       2.49813270796
217.027128391       2.76247514332
217.527190899       3.0471087207
218.027253407       3.35133448403
218.527315914       3.67423268187
219.027378422       4.01464044097
219.52744093       4.37113414415
220.027503438       4.74201721124
220.527565946       5.12531389897
221.027628454       5.51876962908
221.527690961       5.9198582233
222.027753469       6.3257962723
222.527815977       6.73356469496
223.027878485       7.13993735984
223.527940993       7.5415164458
224.0280035       7.93477402197
224.528066008       8.31609913209
225.028128516       8.68184948504
225.528191024       9.02840668619
226.028253532       9.35223380231
226.52831604       9.64993394083
227.028378547       9.91830844849
227.528441055       10.154413299
228.028503563       10.3556122468
228.528566071       10.5196253762
229.028628579       10.6445717704
229.528691086       10.7290051632
230.028753594       10.7719416113
230.528816102       10.7728784325
231.02887861       10.7318038896
231.528941118       10.6491973501
232.029003625       10.5260199125
232.529066133       10.3636957504
233.029128641       10.1640846776
233.529191149       9.92944666918
234.029253657       9.66239928562
234.529316165       9.36586911844
235.029378672       9.04303851745
235.52944118       8.69728895363
236.029503688       8.33214242503
236.529566196       7.95120231986
237.029628704       7.55809511563
237.529691211       7.15641421666
238.029753719       6.74966712004
238.529816227       6.34122695659
239.029878735       5.93428928622
239.529941243       5.53183484193
240.03000375       5.13659872191
240.530066258       4.75104633144
241.030128766       4.37735618288
241.530191274       4.0174094787
242.030253782       3.67278623573
242.53031629       3.34476756174
243.030378797       3.0343435729
243.530441305       2.74222634377
244.030503813       2.46886721168
244.530566321       2.21447771455
245.030628829       1.97905342435
245.530691336       1.76239994491
246.030753844       1.56416037082
246.530816352       1.38384354942
247.03087886       1.22085254693
247.530941368       1.0745127894
248.031003875       0.944099423914
248.531066383       0.828863523116
249.031128891       0.728056831952
249.531191399       0.640954827199
250.031253907       0.566877924532
250.531316415       0.505210723143
251.031378922       0.455419222287
251.53144143       0.417065976959
252.031503938       0.389823180884
252.531566446       0.373483674411
253.031628954       0.367969873726
253.531691461       0.373340607249
254.031753969       0.389795827187
254.531816477       0.417679140944
255.031878985       0.457478081076
255.531941493       0.509822006304
256.032004001       0.575477502551
256.532066508       0.655341134868
257.032129016       0.750429391062
257.532191524       0.861865658453
258.032254032       0.990864088451
258.53231654       1.13871023152
259.032379047       1.3067383686
259.532441555       1.49630552488
260.032504063       1.70876222804
260.532566571       1.94542016407
261.032629079       2.20751698923
261.532691586       2.49617867213
262.032754094       2.81237986386
262.532816602       3.15690292089
263.03287911       3.53029633128
263.532941618       3.93283341334
264.033004126       4.36447226255
264.533066633       4.82481801006
265.033129141       5.31308852012
265.533191649       5.82808468756
266.033254157       6.36816649635
266.533316665       6.93123596113
267.033379172       7.51472799478
267.53344168       8.11561012262
268.033504188       8.73039180135
268.533566696       9.35514389739
269.033629204       9.98552864136
269.533691711       10.6168401073
270.033754219       11.2440549753
270.533816727       11.8618930315
271.033879235       12.4648865544
