#  x                 y             frequency           intensity
0.0       4.39818329024e-15       64.13       0.39556
0.500062507813       7.24503360034e-15       107.03       4.74711
1.00012501563       1.1888049278e-14       193.77       48.62388
1.50018752344       1.94304966893e-14       223.16       67.88537
2.00025003125       3.16344523917e-14       235.22       16.65186
2.50031253907       5.13026563569e-14       285.20       19.08741
3.00037504688       8.28748007561e-14       301.90       11.67954
3.50043755469       1.33354677955e-13       447.48       6.20366
4.00050006251       2.13745571501e-13       519.04       9.86163
4.50056257032       3.41262925234e-13       593.72       89.21528
5.00062507813       5.4273047159e-13       603.67       51.73545
5.50068758595       8.59770253596e-13       772.18       65.59341
6.00075009376       1.3566997277e-12       794.10       34.91754
6.50081260158       2.13249574541e-12       820.69       123.84666
7.00087510939       3.33884087713e-12       997.14       22.57565
7.5009376172       5.2072254772e-12       1050.64       9.19789
8.00100012502       8.08947166021e-12       1064.16       100.11991
8.50106263283       1.25180604765e-11       1078.89       84.29395
9.00112514064       1.9295544829e-11       1144.20       96.80599
9.50118764846       2.96264871212e-11       1210.41       45.48403
10.0012501563       4.53112857321e-11       1249.79       20.76411
10.5013126641       6.90296585372e-11       1265.21       29.80843
11.0013751719       1.0475341198e-10       1344.20       32.79389
11.5014376797       1.58344777052e-10       1356.18       6.54768
12.0015001875       2.38419855957e-10       1407.60       6.56992
12.5015626953       3.57589050938e-10       1443.80       5.22384
13.0016252032       5.34231038852e-10       1512.53       4.50706
13.501687711       7.95018316046e-10       1651.01       27.05727
14.0017502188       1.17849641188e-09       1836.38       309.90102
14.5018127266       1.74013325959e-09       2979.94       63.10693
15.0018752344       2.55941000992e-09       3024.98       32.13950
15.5019377422       3.74973290118e-09       3095.71       11.44668
16.00200025       5.47222461965e-09       3491.61       1.00576
16.5020627578       7.95482465105e-09       3575.13       3.82951
17.0021252657       1.15186191513e-08       3729.73       65.24652
17.5021877735       1.66139668781e-08       3816.74       36.51153
18.0022502813       2.38698326662e-08
18.5023127891       3.41608384593e-08
19.0023752969       4.86979614807e-08
19.5024378047       6.91506322044e-08
20.0025003125       9.7810311291e-08
20.5025628204       1.37808574446e-07
21.0026253282       1.93406449477e-07
21.502687836       2.70376397612e-07
22.0027503438       3.76504104825e-07
22.5028128516       5.22244369619e-07
23.0028753594       7.21574090319e-07
23.5029378672       9.93095942627e-07
24.003000375       1.36145909515e-06
24.5030628829       1.85917855177e-06
25.0031253907       2.52895275752e-06
25.5031878985       3.42660027558e-06
26.0032504063       4.62476092956e-06
26.5033129141       6.21753505227e-06
27.0033754219       8.32626655681e-06
27.5034379297       1.11067115018e-05
28.0035004376       1.47578735563e-05
28.5035629454       1.95328309724e-05
29.0036254532       2.57519257664e-05
29.503687961       3.3818733906e-05
30.0037504688       4.42392841019e-05
30.5038129766       5.76450405777e-05
31.0038754844       7.48202096919e-05
31.5039379922       9.67339686735e-05
32.0040005001       0.000124578243599
32.5040630079       0.000159811679011
33.0041255157       0.000204210438573
33.5041880235       0.000259926449636
34.0042505313       0.000329553648776
34.5043130391       0.000416202694146
35.0043755469       0.000523584477618
35.5044380548       0.000656102588952
36.0045005626       0.000818954649893
36.5045630704       0.00101824214319
37.0046255782       0.0012610880064
37.504688086       0.00155576084092
38.0047505938       0.00191180410383
38.5048131016       0.00234016810601
39.0048756095       0.00285334204307
39.5049381173       0.00346548264425
40.0050006251       0.0041925353555
40.5050631329       0.00505234329499
41.0051256407       0.00606473855617
41.5051881485       0.00725160981564
42.0052506563       0.00863693966196
42.5053131641       0.010246804635
43.005375672       0.012109330693
43.5054381798       0.0142545967461
44.0055006876       0.0167144790525
44.5055631954       0.0195224297027
45.0056257032       0.0227131831579
45.505688211       0.0263223858745
46.0057507188       0.030386145477
46.5058132267       0.0349404977156
47.0058757345       0.0400207915794
47.5059382423       0.0456609953898
48.0060007501       0.051892929436
48.5060632579       0.0587454336796
49.0061257657       0.0662434821616
49.5061882735       0.0744072589049
50.0062507813       0.0832512132017
50.5063132892       0.0927831150926
51.006375797       0.103003134438
51.5064383048       0.113902969128
52.0065008126       0.125465049551
52.5065633204       0.137661847251
53.0066258282       0.150455315791
53.506688336       0.163796490883
54.0067508439       0.177625275038
54.5068133517       0.191870429102
55.0068758595       0.206449789193
55.5069383673       0.221270722746
56.0070008751       0.236230831761
56.5070633829       0.251218904953
57.0071258907       0.266116113626
57.5071883985       0.280797438881
58.0072509064       0.295133310455
58.5073134142       0.308991430332
59.007375922       0.322238747592
59.5074384298       0.33474354496
60.0075009376       0.346377592466
60.5075634454       0.357018319784
61.0076259532       0.366550956338
61.5076884611       0.374870587297
62.0077509689       0.381884074249
62.5078134767       0.38751179162
63.0078759845       0.391689133842
63.5079384923       0.394367753677
64.0080010001       0.395516498878
64.5080635079       0.395122022329
65.0081260158       0.39318904957
65.5081885236       0.389740297045
66.0082510314       0.384816044064
66.5083135392       0.378473371081
67.008376047       0.370785086081
67.5084385548       0.361838369431
68.0085010626       0.351733175046
68.5085635704       0.340580432072
69.0086260783       0.328500096223
69.5086885861       0.315619103323
70.0087510939       0.302069279426
70.5088136017       0.28798526214
71.0088761095       0.27350248652
71.5089386173       0.258755286154
72.0090011251       0.243875156215
72.509063633       0.228989220171
73.0091261408       0.214218936113
73.5091886486       0.199679072234
74.0092511564       0.185476974248
74.5093136642       0.171712140691
75.009376172       0.158476115303
75.5094386798       0.145852699126
76.0095011876       0.133918478934
76.5095636955       0.122743662911
77.0096262033       0.1123932095
77.5096887111       0.102928230729
78.0097512189       0.0944076473116
78.5098137267       0.0868900691339
79.0098762345       0.0804358713969
79.5099387423       0.0751094334482
80.0100012502       0.0709815041631
80.510063758       0.0681316544026
81.0101262658       0.0666507735206
81.5101887736       0.0666435629985
82.0102512814       0.0682309760169
82.5103137892       0.07155254714
83.010376297       0.0767685513576
83.5104388049       0.0840619266499
84.0105013127       0.0936398892252
84.5105638205       0.105735165921
85.0106263283       0.120606764313
85.5106888361       0.138540198255
86.0107513439       0.159847085358
86.5108138517       0.184864033773
87.0108763595       0.213950739063
87.5109388674       0.247487218469
88.0110013752       0.285870119803
88.511063883       0.329508055976
89.0111263908       0.378815933988
89.5111888986       0.43420826908
90.0112514064       0.496091500725
90.5113139142       0.564855356722
91.0113764221       0.640863344569
91.5114389299       0.724442484579
92.0115014377       0.815872436084
92.5115639455       0.915374205274
93.0116264533       1.02309865945
93.5116889611       1.13911510619
94.0117514689       1.26340022558
94.5118139767       1.39582766765
95.0118764846       1.53615864375
95.5119389924       1.68403384853
96.0120015002       1.83896704698
96.512064008       2.00034064767
97.0121265158       2.16740355844
97.5121890236       2.33927158367
98.0122515314       2.51493057343
98.5123140393       2.69324247521
99.0123765471       2.87295436877
99.5124390549       3.05271048721
100.012501563       3.23106714344
100.512564071       3.40651039399
101.012626578       3.57747618489
101.512689086       3.74237263917
102.012751594       3.89960406698
102.512814102       4.04759620928
103.01287661       4.18482216843
103.512939117       4.30982843604
104.013001625       4.42126040217
104.513064133       4.51788672247
105.013126641       4.59862193158
105.513189149       4.66254672265
106.013251656       4.70892536333
106.513314164       4.73721978664
107.013376672       4.74709997949
107.51343918       4.73845038806
108.013501688       4.71137216616
108.513564196       4.66618120541
109.013626703       4.60340200059
109.513689211       4.52375751692
110.013751719       4.42815533267
110.513814227       4.31767042867
111.013876735       4.19352508067
111.513939242       4.05706638019
112.01400175       3.90974196109
112.514064258       3.75307454184
113.014126766       3.5886359065
113.514189274       3.41802094107
114.014251781       3.242822317
114.514314289       3.06460637133
115.014376797       2.88489067658
115.514439305       2.70512372365
116.014501813       2.52666706343
116.514564321       2.35078016737
117.014626828       2.17860818051
117.514689336       2.01117265274
118.014751844       1.84936525021
118.514814352       1.69394437028
119.01487686       1.54553451339
119.514939367       1.40462820444
120.015001875       1.27159020682
120.515064383       1.14666373472
121.015126891       1.02997834347
121.515189399       0.921559163919
122.015251906       0.821337144311
122.515314414       0.7291599705
123.015376922       0.644803352009
123.51543943       0.567982385306
124.015501938       0.498362735521
124.515564446       0.435571411928
125.015626953       0.379206949228
125.515689461       0.328848844508
126.015751969       0.284066137346
126.515814477       0.244425056686
127.015876985       0.209495691777
127.515939492       0.178857674962
128.016002       0.152104890763
128.516064508       0.128849248274
129.016127016       0.108723572127
129.516189524       0.0913836813346
130.016252032       0.0765097352103
130.516314539       0.063806931759
131.016377047       0.0530056466422
131.516439555       0.043861100644
132.016502063       0.0361526408794
132.516564571       0.0296827163337
133.016627078       0.0242756221639
133.516689586       0.0197760799905
134.016752094       0.0160477135636
134.516814602       0.0129714710709
135.01687711       0.0104440372658
135.516939617       0.00837627079235
136.017002125       0.00669169475026
136.517064633       0.00532506183262
137.017127141       0.00422100936218
137.517189649       0.00333281430736
138.017252157       0.00262125388405
138.517314664       0.00205357363145
139.017377172       0.00160256184882
139.51743968       0.00124572693991
140.017502188       0.000964572466413
140.517564696       0.000743963487217
141.017627203       0.00057157698222
141.517689711       0.00043742875336
142.017752219       0.000333469091526
142.517814727       0.00025323963152
143.017877235       0.000191584130607
143.517939742       0.000144406349224
144.01800225       0.00010846874287
144.518064758       8.12262572711e-05
145.018127266       6.06901273675e-05
145.518189774       4.53171938281e-05
146.018252282       3.39208544451e-05
146.518314789       2.56003530179e-05
147.018377297       1.96856714584e-05
147.518439805       1.56958323765e-05
148.018502313       1.33089438645e-05
148.518564821       1.23428336342e-05
149.018627328       1.27456373995e-05
149.518689836       1.45962408956e-05
150.018752344       1.81150436409e-05
150.518814852       2.36861360275e-05
151.01887736       3.18926831565e-05
151.518939867       4.35681158082e-05
152.019002375       5.98666710178e-05
152.519064883       8.23579350553e-05
153.019127391       0.000113151356328
153.519189899       0.000155058253567
154.019252407       0.000211800686374
154.519314914       0.000288278722339
155.019377422       0.000390910168688
155.51943993       0.000528059775042
156.019502438       0.000710578290645
156.519564946       0.000952475598595
157.019627453       0.0012717564626
157.519689961       0.00169145220184
158.019752469       0.00224088682609
158.519814977       0.0029572217548
159.019877485       0.00388732911111
159.519939992       0.00509004957989
160.0200025       0.00663889674776
160.520065008       0.00862527544405
161.020127516       0.0111622865438
161.520190024       0.0143891945765
162.020252532       0.0184766368258
162.520315039       0.0236326528518
163.020377547       0.0301096108866
163.520440055       0.038212101651
164.020502563       0.048305860082
164.520565071       0.0608277604618
165.020627578       0.0762969097517
165.520690086       0.0953268368197
166.020752594       0.118638741078
166.520815102       0.147075722317
167.02087761       0.181617863931
167.520940118       0.223397984285
168.021002625       0.273717805891
168.521065133       0.334064220194
169.021127641       0.406125248122
169.521190149       0.491805214992
170.021252657       0.593238575
170.521315164       0.712801738301
171.021377672       0.853122175966
171.52144018       1.01708400886
172.021502688       1.20782923013
172.521565196       1.42875367238
173.021627703       1.68349681458
173.521690211       1.97592453549
174.021752719       2.31010396457
174.521815227       2.69026966245
175.021877735       3.12078048411
175.521940243       3.60606664253
176.02200275       4.15056669819
176.522065258       4.75865445172
177.022127766       5.43455600923
177.522190274       6.18225761866
178.022252782       7.00540523398
178.522315289       7.90719714303
179.022377797       8.89027138297
179.522440305       9.95659005206
180.022502813       11.1073229923
180.522565321       12.3427336488
181.022627828       13.6620701914
181.522690336       15.063465198
182.022752844       16.5438473239
182.522815352       18.0988684191
183.02287786       19.7228494689
183.522940368       21.4087485456
184.023002875       23.1481536333
184.523065383       24.9313027537
185.023127891       26.7471332577
185.523190399       28.5833614868
186.023252907       30.4265932501
186.523315414       32.2624647359
187.023377922       34.0758126041
187.52344043       35.8508711125
188.023502938       37.571493254
188.523565446       39.2213920483
189.023627953       40.7843973781
189.523690461       42.2447231175
190.023752969       43.5872387914
190.523815477       44.7977396662
191.023877985       45.863209006
191.523940493       46.7720662622
192.024003       47.5143951939
192.524065508       48.0821463402
193.024128016       48.4693088748
193.524190524       48.6720476467
194.024253032       48.6888021241
194.524315539       48.5203449785
195.024378047       48.1697991375
195.524440555       47.6426132571
196.024503063       46.9464966728
196.524565571       46.0913159505
197.024628079       45.0889561232
197.524690586       43.9531505414
198.024753094       42.6992839515
198.524815602       41.344173921
199.02487811       39.9058360431
199.524940618       38.4032384641
200.025003125       36.8560511918
200.525065633       35.2843953673
201.025128141       33.7085972394
201.525190649       32.1489509928
202.025253157       30.625493883
202.525315664       29.1577963528
203.025378172       27.7647689922
203.52544068       26.4644873913
204.025503188       25.2740351604
204.525565696       24.2093646958
205.025628204       23.285174677
205.525690711       22.5148028209
206.025753219       21.9101321118
206.525815727       21.4815085763
207.025878235       21.2376686925
207.525940743       21.1856746968
208.02600325       21.3308563752
208.526065758       21.6767583723
209.026128266       22.2250925926
209.526190774       22.9756958785
210.026253282       23.9264937811
210.526315789       25.0734718669
211.026378297       26.4106565727
211.526440805       27.9301081093
212.026503313       29.6219282768
212.526565821       31.4742862672
213.026628329       33.4734655688
213.526690836       35.6039349392
214.026753344       37.8484460684
214.526815852       40.188160024
215.02687836       42.6028038568
215.526940868       45.0708578821
216.027003375       47.5697731623
216.527065883       50.0762176406
217.027128391       52.5663482609
217.527190899       55.0161052967
218.027253407       57.4015240605
218.527315914       59.6990582161
219.027378422       61.8859081212
219.52744093       63.9403470277
220.027503438       65.8420375972
220.527565946       67.5723310676
221.027628454       69.1145415638
221.527690961       70.4541884688
222.027753469       71.5792004613
222.527815977       72.4800757622
223.027878485       73.1499942813
223.527940993       73.5848786761
224.0280035       73.7834027814
224.528066008       73.7469473832
225.028128516       73.4795048352
225.528191024       72.987535495
226.028253532       72.2797803283
226.52831604       71.3670352457
227.028378547       70.2618937463
227.528441055       68.9784652166
228.028503563       67.5320767385
228.528566071       65.9389664862
229.028628579       64.2159767385
229.528691086       62.3802542028
230.028753594       60.4489647703
230.528816102       58.4390290213
231.02887861       56.3668838197
231.528941118       54.2482742197
232.029003625       52.0980787064
232.529066133       49.9301695543
233.029128641       47.7573088639
233.529191149       45.591079679
234.029253657       43.4418505261
234.529316165       41.3187707996
235.029378672       39.2297936632
235.52944118       37.1817225633
236.029503688       35.1802770757
236.529566196       33.2301736168
237.029628704       31.3352165486
237.529691211       29.4983953738
238.029753719       27.7219840275
238.529816227       26.0076387071
239.029878735       24.3564912026
239.529941243       22.7692352773
240.03000375       21.2462042593
240.530066258       19.7874386198
241.030128766       18.3927429044
241.530191274       17.061731922
242.030253782       15.7938665724
242.53031629       14.5884800907
243.030378797       13.4447957927
243.530441305       12.3619376291
244.030503813       11.3389349807
244.530566321       10.3747231787
245.030628829       9.4681412027
245.530691336       8.61792791636
246.030753844       7.82271805913
246.530816352       7.08103902799
247.03087886       6.3913092792
247.530941368       5.75183896163
248.031003875       5.16083317733
248.531066383       4.61639805874
249.031128891       4.1165496659
249.531191399       3.65922554597
250.031253907       3.2422986665
250.531316415       2.86359333537
251.031378922       2.52090265382
251.53144143       2.21200701413
252.031503938       1.93469314733
252.531566446       1.68677324492
253.031628954       1.46610371795
253.531691461       1.27060321206
254.031753969       1.0982695631
254.531816477       0.94719545036
255.031878985       0.815582577807
255.531941493       0.701754285381
256.032004001       0.604166557523
256.532066508       0.521417452773
257.032129016       0.452255024036
257.532191524       0.395583832633
258.032254032       0.350470179704
258.53231654       0.316146185867
259.032379047       0.292012844578
259.532441555       0.277642157341
260.032504063       0.272778431101
260.532566571       0.277338781446
261.032629079       0.291412841739
261.532691586       0.315261630069
262.032754094       0.349315475474
262.532816602       0.394170854707
263.03287911       0.450585943523
263.532941618       0.519474644736
264.033004126       0.601898821663
264.533066633       0.699058442704
265.033129141       0.812279332889
265.533191649       0.942998233545
266.033254157       1.09274489344
266.533316665       1.26312095533
267.033379172       1.45577546137
267.53344168       1.6723768799
268.033504188       1.91458165363
268.533566696       2.1839993844
