#  x                 y             frequency           rot. str.
0.0      -0.00337357606795      14.94      -1.32
0.500062507813      -0.0103454622856      27.21      2.71
1.00012501563      -0.0180743378566      44.89      0.21
1.50018752344      -0.0266331938712      62.32      -3.01
2.00025003125      -0.0361004036688      71.48      14.81
2.50031253907      -0.0465594253348      102.91      -8.22
3.00037504688      -0.0580981759001      122.70      -0.23
3.50043755469      -0.0708079511079      144.29      -0.00
4.00050006251      -0.0847817274503      156.51      0.59
4.50056257032      -0.100111638356      162.77      -1.29
5.00062507813      -0.116885364254      194.53      -6.53
5.50068758595      -0.135181118666      212.71      -2.26
6.00075009376      -0.155060854174      236.77      74.29
6.50081260158      -0.176561262135      242.56      -28.61
7.00087510939      -0.199682114078      244.26      0.57
7.5009376172      -0.224371515644      248.62      -6.69
8.00100012502      -0.250507752287      287.17      -46.95
8.50106263283      -0.277877648991      316.47      -2.24
9.00112514064      -0.306151803379      337.96      8.43
9.50118764846      -0.334857742413      351.70      -1.05
10.0012501563      -0.363353035187      376.35      6.94
10.5013126641      -0.390801645809      391.96      -29.99
11.0013751719      -0.416158195265      419.69      -6.29
11.5014376797      -0.438166013656      428.67      6.73
12.0015001875      -0.455375400364      447.77      -7.91
12.5015626953      -0.46618772131      465.43      7.27
13.0016252032      -0.468928255957      524.03      -0.29
13.501687711      -0.461945841617      531.60      17.27
14.0017502188      -0.443730903158      547.20      1.50
14.5018127266      -0.41303694464      561.56      -4.44
15.0018752344      -0.368986296025      577.58      0.79
15.5019377422      -0.311141037482      580.98      7.84
16.00200025      -0.239525513883      604.53      2.58
16.5020627578      -0.154596623048      612.50      -22.53
17.0021252657      -0.057169192914      641.00      0.59
17.5021877735      0.0516872774118      649.41      -6.14
18.0022502813      0.170760002061      656.38      7.86
18.5023127891      0.29879296179      667.86      -3.04
19.0023752969      0.434561185869      701.40      -12.67
19.5024378047      0.576911530551      727.94      -9.73
20.0025003125      0.724768532792      770.98      12.50
20.5025628204      0.877108620183      778.77      -13.24
21.0026253282      1.03290883473      795.74      18.01
21.502687836      1.19107775847      815.53      40.79
22.0027503438      1.35037726344      833.05      -65.09
22.5028128516      1.50934470415      840.15      30.77
23.0028753594      1.66622654407      855.02      7.62
23.5029378672      1.81893599061      857.81      -29.42
24.003000375      1.96504829062      873.39      -47.55
24.5030628829      2.10184671211      887.71      16.44
25.0031253907      2.22642850475      893.14      7.21
25.5031878985      2.33587225131      918.02      -2.15
26.0032504063      2.427456129      935.54      -16.40
26.5033129141      2.49890271027      944.51      -16.52
27.0033754219      2.54861401824      968.69      1.80
27.5034379297      2.57585545051      977.63      -0.20
28.0035004376      2.58085247307      982.32      -0.24
28.5035629454      2.56477977138      990.38      28.74
29.0036254532      2.5296446619      1017.71      10.78
29.503687961      2.4780880322      1025.87      15.38
30.0037504688      2.41314020269      1043.04      -34.32
30.5038129766      2.33797242969      1044.33      -75.37
31.0038754844      2.25567813167      1062.50      22.51
31.5039379922      2.16910530482      1073.92      6.72
32.0040005001      2.08074784371      1080.87      7.22
32.5040630079      1.99269230742      1110.90      56.87
33.0041255157      1.90660978025      1125.18      12.63
33.5041880235      1.82377979685      1134.24      12.09
34.0042505313      1.74513373869      1158.59      -11.14
34.5043130391      1.67130730339      1169.20      3.71
35.0043755469      1.60269445569      1172.14      0.03
35.5044380548      1.53949794587      1187.01      -17.81
36.0045005626      1.48177365809      1197.56      -128.16
36.5045630704      1.42946762814      1214.94      -194.25
37.0046255782      1.38244560174      1228.36      123.48
37.504688086      1.34051560948      1236.62      79.62
38.0047505938      1.30344434387      1245.76      29.05
38.5048131016      1.27096825452      1260.58      -22.85
39.0048756095      1.24280031978      1273.51      -20.70
39.5049381173      1.21863347606      1278.91      88.71
40.0050006251      1.19814172951      1286.44      0.54
40.5050631329      1.18098005791      1295.87      -59.62
41.0051256407      1.16678431955      1328.09      -3.25
41.5051881485      1.15517247462      1335.74      -0.24
42.0052506563      1.14574841114      1338.58      -7.25
42.5053131641      1.13810944622      1345.15      -9.54
43.005375672      1.13185805104      1354.42      24.92
43.5054381798      1.12661749688      1355.16      -11.59
44.0055006876      1.12205004224      1361.67      13.25
44.5055631954      1.11787523736      1376.14      -13.93
45.0056257032      1.11388527941      1381.24      -11.45
45.505688211      1.10995444289      1385.03      17.76
46.0057507188      1.10604055462      1390.14      -18.31
46.5058132267      1.10217807254      1400.86      51.09
47.0058757345      1.09846407501      1418.74      23.25
47.5059382423      1.0950398167      1431.42      67.82
48.0060007501      1.09207108299      1457.27      -10.39
48.5060632579      1.08973032577      1480.68      -4.04
49.0061257657      1.08818273227      1490.93      -2.14
49.5061882735      1.08757733795      1494.49      11.99
50.0062507813      1.08804337858      1494.82      -5.75
50.5063132892      1.08969147646      1502.44      -8.27
51.006375797      1.09261901123      1504.45      -13.37
51.5064383048      1.09691907447      1507.90      16.74
52.0065008126      1.10269264598      1512.01      -6.55
52.5065633204      1.11006395963      1549.33      28.60
53.0066258282      1.11919937208      1603.48      2.47
53.506688336      1.1303303574      1642.98      -9.07
54.0067508439      1.14378148562      1664.00      11.66
54.5068133517      1.16000436241      2208.73      4.57
55.0068758595      1.17961845437      3006.37      -1.37
55.5069383673      1.20345941692      3024.37      7.26
56.0070008751      1.23263486659      3024.57      -3.05
56.5070633829      1.26858636322      3030.89      1.79
57.0071258907      1.31315456016      3033.59      0.48
57.5071883985      1.36864198134      3043.01      24.90
58.0072509064      1.43786479015      3050.68      22.02
58.5073134142      1.52418161881      3061.85      -23.76
59.007375922      1.63148482781      3061.92      2.85
59.5074384298      1.76413870978      3064.14      -18.96
60.0075009376      1.92685163697      3071.48      47.34
60.5075634454      2.12447620866      3077.77      -26.23
61.0076259532      2.36174321783      3087.83      29.07
61.5076884611      2.64294991415      3115.06      4.87
62.0077509689      2.97163656956      3130.93      2.43
62.5078134767      3.35029243608      3136.12      -3.15
63.0078759845      3.78012841123      3191.92      -0.21
63.5079384923      4.26093817037      3213.59      -1.24
64.0080010001      4.79104612568      3213.64      1.11
64.5080635079      5.3673170733      3219.99      -4.58
65.0081260158      5.98518714513      3468.65      -8.33
65.5081885236      6.63867413757      3792.35      9.46
66.0082510314       7.32033816658
66.5083135392       8.0211874641
67.008376047       8.73055340141
67.5084385548       9.43598756267
68.0085010626       10.1232562252
68.5085635704       10.7765181353
69.0086260783       11.3787638337
69.5086885861       11.9125635755
70.0087510939       12.3611145393
70.5088136017       12.7095029829
71.0088761095       12.9460203232
71.5089386173       13.0633192158
72.0090011251       13.0591914897
72.509063633       12.936806025
73.0091261408       12.7043506578
73.5091886486       12.3741460892
74.0092511564       11.9614017489
74.5093136642       11.482833785
75.009376172       10.9553559956
75.5094386798       10.3949995777
76.0095011876       9.81614264486
76.5095636955       9.23106012216
77.0096262033       8.64975415532
77.5096887111       8.07999891544
78.0097512189       7.52752804297
78.5098137267       6.99630084414
79.0098762345       6.48879764156
79.5099387423       6.00631012402
80.0100012502       5.54920609165
80.510063758       5.11715840667
81.0101262658       4.70933514816
81.5101887736       4.32455242628
82.0102512814       3.96139371738
82.5103137892       3.61830058824
83.010376297       3.29363981146
83.5104388049       2.98575152029
84.0105013127       2.69298246672
84.5105638205       2.41370779305
85.0106263283       2.14634409549
85.5106888361       1.88935599473
86.0107513439       1.64125795096
86.5108138517       1.400612672
87.0108763595       1.16602715669
87.5109388674       0.936147182848
88.0110013752       0.709650880878
88.511063883       0.485241920638
89.0111263908       0.261642776619
89.5111888986       0.0375885182413
90.0112514064       -0.188178401962
90.5113139142       -0.416911819997
91.0113764221       -0.649863334157
91.5114389299       -0.888280758775
92.0115014377       -1.13340251951
92.5115639455       -1.38644668221
93.0116264533       -1.64859298876
93.5116889611       -1.92095591958
94.0117514689       -2.20454644553
94.5118139767       -2.50021983096
95.0118764846       -2.80860670753
95.5119389924       -3.13002481473
96.0120015002       -3.46436953175
96.512064008       -3.81098291976
97.0121265158       -4.16850382549
97.5121890236       -4.53470603317
98.0122515314       -4.90633770503
98.5123140393       -5.27898323714
99.0123765471       -5.64697725521
99.5124390549       -6.00340777746
100.012501563       -6.34024834296
100.512564071       -6.64865306637
101.012626578       -6.91943047719
101.512689086       -7.14368055893
102.012751594       -7.31353854839
102.512814102       -7.42292886434
103.01287661       -7.46820739054
103.512939117       -7.44857346559
104.013001625       -7.36616931265
104.513064133       -7.22584645665
105.013126641       -7.03464707102
105.513189149       -6.80110132553
106.013251656       -6.53446468239
106.513314164       -6.2440093566
107.013376672       -5.93845099513
107.51343918       -5.62554958214
108.013501688       -5.31188572316
108.513564196       -5.00278736453
109.013626703       -4.70236928157
109.513689211       -4.41364587924
110.013751719       -4.13868294602
110.513814227       -3.87876215756
111.013876735       -3.63454060245
111.513939242       -3.40619487303
112.01400175       -3.19354475673
112.514064258       -2.99615529265
113.014126766       -2.81341822514
113.514189274       -2.64461507213
114.014251781       -2.48896448427
114.514314289       -2.34565658523
115.014376797       -2.21387675787
115.514439305       -2.09282101579
116.014501813       -1.98170476382
116.514564321       -1.87976646097
117.014626828       -1.78626748671
117.514689336       -1.70048939559
118.014751844       -1.62172972553
118.514814352       -1.549297587
119.01487686       -1.48251035879
119.514939367       -1.42069287403
120.015001875       -1.36318038948
120.515064383       -1.30932627072
121.015126891       -1.25851461205
121.515189399       -1.21017696058
122.015251906       -1.16381111042
122.515314414       -1.11899891686
123.015376922       -1.07541966415
123.51543943       -1.03285599635
124.015501938       -0.991190783196
124.515564446       -0.95039517174
125.015626953       -0.910509873893
125.515689461       -0.871622896999
126.015751969       -0.833847162932
126.515814477       -0.797300864996
127.015876985       -0.762092327318
127.515939492       -0.728309967916
128.016002       -0.696017032193
128.516064508       -0.665250195682
129.016127016       -0.636020921908
129.516189524       -0.608318508063
130.016252032       -0.582113942451
130.516314539       -0.557363937647
131.016377047       -0.534014730269
131.516439555       -0.512005422013
132.016502063       -0.491270769316
132.516564571       -0.471743415398
133.016627078       -0.453355608372
133.516689586       -0.436040473179
134.016752094       -0.419732912402
134.516814602       -0.404370208377
135.01687711       -0.389892391366
135.516939617       -0.376242428841
136.017002125       -0.363366281045
136.517064633       -0.351212858957
137.017127141       -0.33973391293
137.517189649       -0.328883873829
138.017252157       -0.318619663368
138.517314664       -0.308900486405
139.017377172       -0.299687615082
139.51743968       -0.290944172782
140.017502188       -0.282634924747
140.517564696       -0.274726081901
141.017627203       -0.267185124838
141.517689711       -0.259980656175
142.017752219       -0.253082291593
142.517814727       -0.246460602996
143.017877235       -0.240087131621
143.517939742       -0.233934494765
144.01800225       -0.227976617457
144.518064758       -0.222189130275
145.018127266       -0.216549986876
145.518189774       -0.211040370105
146.018252282       -0.205645973839
146.518314789       -0.200358768788
147.018377297       -0.195179383407
147.518439805       -0.190120253608
148.018502313       -0.185209713092
148.518564821       -0.18049720269
149.018627328       -0.176059761082
149.518689836       -0.172009904235
150.018752344       -0.168504884712
150.518814852       -0.165757117645
151.01887736       -0.164045239619
151.518939867       -0.163724810656
152.019002375       -0.165237083272
152.519064883       -0.169113600221
153.019127391       -0.175973772838
153.519189899       -0.186512253974
154.019252407       -0.201473145447
154.519314914       -0.221609158968
155.019377422       -0.247625925431
155.51943993       -0.280114544586
156.019502438       -0.319478582581
156.519564946       -0.365864113908
157.019627453       -0.419102123223
157.519689961       -0.478671181906
158.019752469       -0.543685197616
158.519814977       -0.612907384021
159.019877485       -0.684788806133
159.519939992       -0.757528765011
160.0200025       -0.829154682411
160.520065008       -0.897619852637
161.020127516       -0.960916938336
161.520190024       -1.01720243807
162.020252532       -1.06492281812
162.520315039       -1.10292822827
163.020377547       -1.13055715977
163.520440055       -1.14767713963
164.020502563       -1.15467310113
164.520565071       -1.1523848198
165.020627578       -1.14200462343
165.520690086       -1.12495326685
166.020752594       -1.10275359668
166.520815102       -1.07691862959
167.02087761       -1.04886470833
167.520940118       -1.01985377324
168.021002625       -0.990963305745
168.521065133       -0.963079048329
169.021127641       -0.936904196543
169.521190149       -0.912978892215
170.021252657       -0.891704870967
170.521315164       -0.873371471482
171.021377672       -0.858180526155
171.52144018       -0.84626873315
172.021502688       -0.837726901705
172.521565196       -0.832615986279
173.021627703       -0.830980134447
173.521690211       -0.832857128649
174.021752719       -0.838286655418
174.521815227       -0.847316828391
175.021877735       -0.860009351457
175.521940243       -0.876443654386
176.02200275       -0.896720276111
176.522065258       -0.920963716344
177.022127766       -0.94932492681
177.522190274       -0.98198356957
178.022252782       -1.01915013069
178.522315289       -1.06106794149
179.022377797       -1.10801512457
179.522440305       -1.16030644563
180.022502813       -1.21829501184
180.522565321       -1.28237371022
181.022627828       -1.35297622188
181.522690336       -1.43057737559
182.022752844       -1.51569251268
182.522815352       -1.60887541987
183.02287786       -1.7107142414
183.522940368       -1.82182460286
184.023002875       -1.94283896257
184.523065383       -2.07439095323
185.023127891       -2.21709319513
185.523190399       -2.37150677274
186.023252907       -2.53810031043
186.523315414       -2.7171964332
187.023377922       -2.90890346926
187.52344043       -3.11303071681
188.023502938       -3.3289866908
188.523565446       -3.55566177695
189.023627953       -3.79129994714
189.523690461       -4.03336884362
190.023752969       -4.27844356137
190.523815477       -4.52212626839
191.023877985       -4.75903001512
191.523940493       -4.98285832999
192.024003       -5.1866093272
192.524065508       -5.3629209614
193.024128016       -5.50455128514
193.524190524       -5.60495621778
194.024253032       -5.65889439098
194.524315539       -5.66296505477
195.024378047       -5.61598199236
195.524440555       -5.51910971592
196.024503063       -5.37573397405
196.524565571       -5.19109331596
197.024628079       -4.97174459627
197.524690586       -4.72495921759
198.024753094       -4.4581444303
198.524815602       -4.17836076893
199.02487811       -3.89197382548
199.524940618       -3.60444705983
200.025003125       -3.32025930488
200.525065633       -3.04291825967
201.025128141       -2.77503816924
201.525190649       -2.51845297569
202.025253157       -2.27434232846
202.525315664       -2.04335457368
203.025378172       -1.82571679647
203.52544068       -1.62132657489
204.025503188       -1.42982326625
204.525565696       -1.25063861258
205.025628204       -1.08302755339
205.525690711       -0.926080714016
206.025753219       -0.778720404803
206.525815727       -0.639682389585
207.025878235       -0.50748638215
207.525940743       -0.380399369493
208.02600325       -0.256397504237
208.526065758       -0.133134351862
209.026128266       -0.00792535894941
209.526190774       0.122240170098
210.026253282       0.260648555206
210.526315789       0.41076471442
211.026378297       0.576087328743
211.526440805       0.759964950154
212.026503313       0.965393446173
212.526565821       1.19482500789
213.026628329       1.45002292825
213.526690836       1.73199159053
214.026753344       2.04099766186
214.526815852       2.3766799874
215.02687836       2.73822800033
215.526940868       3.12459710154
216.027003375       3.53472714388
216.527065883       3.96773602798
217.027128391       4.4230710795
217.527190899       4.9006123031
218.027253407       5.40073077191
218.527315914       5.92431096385
219.027378422       6.47274790965
219.52744093       7.04792950378
220.027503438       7.65221237577
220.527565946       8.28839725635
221.027628454       8.95970739667
221.527690961       9.66977158973
222.027753469       10.4226117613
222.527815977       11.222633872
223.027878485       12.0746198757
223.527940993       12.9837175784
224.0280035       13.9554242893
224.528066008       14.995559057
225.028128516       16.1102169107
225.528191024       17.3056968182
226.028253532       18.5883929538
226.52831604       19.9646363282
227.028378547       21.440470911
227.528441055       23.0213452451
228.028503563       24.7116975599
228.528566071       26.5144101949
229.028628579       28.4301088255
229.528691086       30.4562851957
230.028753594       32.5862311677
230.528816102       34.8077899477
231.02887861       37.1019607961
231.528941118       39.4414394686
232.029003625       41.7892391529
232.529066133       44.0976123714
233.029128641       46.3075720748
233.529191149       48.349368232
234.029253657       50.1442821257
234.529316165       51.6080166746
235.029378672       52.6557587989
235.52944118       53.2086707046
236.029503688       53.2011827641
236.529566196       52.5881168638
237.029628704       51.350497647
237.529691211       49.4990119502
238.029753719       47.0744650284
238.529816227       44.1451516158
239.029878735       40.8016277942
239.529941243       37.1497594202
240.03000375       33.3030456574
240.530066258       29.3751008597
241.030128766       25.4729365958
241.530191274       21.6914423929
242.030253782       18.1092936791
242.53031629       14.7864210899
243.030378797       11.7631077291
243.530441305       9.06068432166
