#  x                 y             frequency           rot. str.
0.0      0.078311000961      28.73      0.47
0.500062507813      0.0793345338347      32.75      0.77
1.00012501563      0.0804213709776      42.37      -0.40
1.50018752344      0.0815763735066      54.53      -3.91
2.00025003125      0.0828048179877      82.41      2.16
2.50031253907      0.084112435868      130.88      -6.29
3.00037504688      0.0855054569925      133.98      0.68
3.50043755469      0.0869906576554      146.05      0.15
4.00050006251      0.0885754136787      150.70      -2.87
4.50056257032      0.0902677590671      165.04      -2.43
5.00062507813      0.0920764508431      201.93      7.32
5.50068758595      0.094011040726      206.79      7.93
6.00075009376      0.0960819543853      236.58      2.60
6.50081260158      0.0983005790606      241.87      -6.54
7.00087510939      0.100679360412      249.07      -16.72
7.5009376172      0.103231909525      267.59      151.15
8.00100012502      0.105973121061      297.97      -17.54
8.50106263283      0.108919303579      314.77      -25.28
9.00112514064      0.112088323121      343.17      5.67
9.50118764846      0.115499761101      360.22      -2.91
10.0012501563      0.119175087573      373.69      -4.23
10.5013126641      0.123137850794      392.17      4.49
11.0013751719      0.127413883859      424.64      -5.30
11.5014376797      0.132031528872      430.52      -0.72
12.0015001875      0.137021878647      458.12      -0.45
12.5015626953      0.142419035258      473.25      5.44
13.0016252032      0.148260383746      516.42      7.38
13.501687711      0.154586877897      532.70      7.72
14.0017502188      0.161443333036      545.41      -3.10
14.5018127266      0.168878718113      553.07      4.56
15.0018752344      0.17694643571      562.36      -2.06
15.5019377422      0.185704573744      585.19      9.40
16.00200025      0.195216106195      611.23      -5.68
16.5020627578      0.205549011734      615.08      -1.44
17.0021252657      0.216776268288      638.69      7.31
17.5021877735      0.228975667672      652.92      -18.71
18.0022502813      0.242229377194      655.47      6.43
18.5023127891      0.256623154105      660.42      18.46
19.0023752969      0.272245093974      704.35      2.09
19.5024378047      0.289183766245      733.62      -10.80
20.0025003125      0.307525561057      776.02      -1.97
20.5025628204      0.327351044507      788.00      -3.76
21.0026253282      0.348730101237      804.53      2.76
21.502687836      0.371715643343      815.29      43.79
22.0027503438      0.396335697625      832.92      -69.93
22.5028128516      0.422583768351      850.17      -12.84
23.0028753594      0.450407532028      851.27      -1.80
23.5029378672      0.479696175227      865.63      6.87
24.003000375      0.510267046012      877.09      3.46
24.5030628829      0.541852738076      882.69      -25.87
25.0031253907      0.574090203497      894.21      22.65
25.5031878985      0.606513872998      924.15      -39.74
26.0032504063      0.638554869958      939.87      3.73
26.5033129141      0.669548031557      945.52      34.31
27.0033754219      0.698747458519      978.70      10.76
27.5034379297      0.725349757967      981.58      -5.25
28.0035004376      0.748522377599      988.48      30.19
28.5035629454      0.767433102379      992.76      0.58
29.0036254532      0.781276626786      1019.21      -43.10
29.503687961      0.789295542898      1020.69      41.67
30.0037504688      0.790795812433      1043.70      -9.29
30.5038129766      0.785159738245      1053.79      -82.33
31.0038754844      0.771861123421      1058.45      -23.42
31.5039379922      0.750486550875      1063.84      152.21
32.0040005001      0.720763445331      1083.99      -11.27
32.5040630079      0.682591010129      1106.41      -28.87
33.0041255157      0.636066320329      1112.59      -0.56
33.5041880235      0.581496714622      1129.93      11.41
34.0042505313      0.519391940245      1145.00      15.56
34.5043130391      0.45043447919      1157.15      1.24
35.0043755469      0.375432160671      1171.55      -3.86
35.5044380548      0.295261405419      1174.83      25.59
36.0045005626      0.210810925857      1209.33      -2.17
36.5045630704      0.122934349348      1229.88      -5.16
37.0046255782      0.0324169740322      1230.60      10.87
37.504688086      -0.0600419867588      1237.71      6.13
38.0047505938      -0.153833680073      1251.86      -0.71
38.5048131016      -0.248434705545      1260.12      -38.70
39.0048756095      -0.343398398308      1272.14      -6.43
39.5049381173      -0.438347656761      1279.70      -17.78
40.0050006251      -0.532973719465      1287.51      -1.30
40.5050631329      -0.627043558798      1296.78      -0.22
41.0051256407      -0.720416205068      1324.08      14.07
41.5051881485      -0.813065657207      1332.71      0.27
42.0052506563      -0.905105610875      1337.00      -22.54
42.5053131641      -0.996809730519      1338.10      -7.61
43.005375672      -1.08862120069      1353.30      8.13
43.5054381798      -1.18114698126      1354.99      -13.61
44.0055006876      -1.27513510611      1361.51      1.80
44.5055631954      -1.37143654153      1376.01      -27.47
45.0056257032      -1.47095549066      1377.66      -9.48
45.505688211      -1.57459290264      1379.32      -0.56
46.0057507188      -1.68318726275      1385.51      30.34
46.5058132267      -1.79745501781      1402.74      6.99
47.0058757345      -1.91793100752      1407.53      -0.71
47.5059382423      -2.04490775293      1416.14      -52.23
48.0060007501      -2.17837188477      1469.26      29.28
48.5060632579      -2.31793661265      1480.50      1.92
49.0061257657      -2.46277099378      1489.61      -3.98
49.5061882735      -2.61152978757      1494.14      5.72
50.0062507813      -2.76229167201      1497.63      3.16
50.5063132892      -2.91251808531      1502.78      0.07
51.006375797      -3.05904906199      1504.45      -3.95
51.5064383048      -3.19815473241      1510.12      45.60
52.0065008126      -3.32565977676      1511.87      -12.12
52.5065633204      -3.43715121012      1546.48      -37.98
53.0066258282      -3.52826650998      1608.68      17.19
53.506688336      -3.59504047663      1631.12      -3.66
54.0067508439      -3.63426942351      1663.37      -0.97
54.5068133517      -3.64383684645      2205.38      -1.93
55.0068758595      -3.6229423696      3009.89      16.77
55.5069383673      -3.57218916458      3022.83      -4.03
56.0070008751      -3.49351206173      3030.23      7.18
56.5070633829      -3.38996131029      3043.50      3.99
57.0071258907      -3.26538490511      3046.79      9.29
57.5071883985      -3.1240672551      3056.01      11.80
58.0072509064      -2.97038100733      3062.56      -24.33
58.5073134142      -2.80849525744      3065.42      39.18
59.007375922      -2.64216377584      3067.40      -4.33
59.5074384298      -2.47459790874      3070.12      -21.37
60.0075009376      -2.30841481352      3073.01      2.95
60.5075634454      -2.1456440847      3090.19      -1.81
61.0076259532      -1.98777383379      3096.07      15.48
61.5076884611      -1.83581907089      3135.68      1.84
62.0077509689      -1.69039889587      3139.36      -3.70
62.5078134767      -1.55181309143      3144.11      -0.71
63.0078759845      -1.42011235606      3187.57      -0.32
63.5079384923      -1.29515925172      3190.61      -2.07
64.0080010001      -1.17667892014      3203.39      0.06
64.5080635079      -1.0642998638      3230.24      3.10
65.0081260158      -0.957585770784      3469.55      -18.53
65.5081885236      -0.856059660003      3801.11      -14.10
66.0082510314       -0.759221679805
66.5083135392       -0.666561811917
67.008376047       -0.57756858743
67.5084385548       -0.491734756049
68.0085010626       -0.40856069084
68.5085635704       -0.327556171908
69.0086260783       -0.248241079973
69.5086885861       -0.170145446712
70.0087510939       -0.0928092525362
70.5088136017       -0.0157823332853
71.0088761095       0.0613752464307
71.5089386173       0.139091975031
72.0090011251       0.217782409858
72.509063633       0.297842943658
73.0091261408       0.379645261204
73.5091886486       0.463526843707
74.0092511564       0.549777808381
74.5093136642       0.63862333932
75.009376172       0.730201016368
75.5094386798       0.824532542696
76.0095011876       0.921489791703
76.5095636955       1.02075583787
77.0096262033       1.12178280062
77.5096887111       1.22374997175
78.0097512189       1.32552776814
78.5098137267       1.425655311
79.0098762345       1.52234135569
79.5099387423       1.6134990331
80.0100012502       1.69682334405
80.510063758       1.76991560902
81.0101262658       1.8304508301
81.5101887736       1.87637319315
82.0102512814       1.90609436731
82.5103137892       1.91866262094
83.010376297       1.91387155129
83.5104388049       1.89228674192
84.0105013127       1.85518488202
84.5105638205       1.80441785991
85.0106263283       1.74222833733
85.5106888361       1.67104936733
86.0107513439       1.59331810137
86.5108138517       1.51132493953
87.0108763595       1.42710843116
87.5109388674       1.34239627411
88.0110013752       1.25858588536
88.511063883       1.17675465619
89.0111263908       1.09768952279
89.5111888986       1.02192681707
90.0112514064       0.949795504243
90.5113139142       0.881459142998
91.0113764221       0.816953818495
91.5114389299       0.756220745659
92.0115014377       0.699133224864
92.5115639455       0.645518231878
93.0116264533       0.595173239457
93.5116889611       0.547878991705
94.0117514689       0.503408958275
94.5118139767       0.461536136633
95.0118764846       0.422037782405
95.5119389924       0.384698551747
96.0120015002       0.349312448068
96.512064008       0.315683884024
97.0121265158       0.283628100711
97.5121890236       0.252971129354
98.0122515314       0.223549435355
98.5123140393       0.195209348824
99.0123765471       0.167806357923
99.5124390549       0.141204320105
100.012501563       0.115274630121
100.512564071       0.089895371539
101.012626578       0.064950469402
101.512689086       0.0403288549534
102.012751594       0.0159236483785
102.512814102       -0.0083686380946
103.01287661       -0.0326488770348
103.512939117       -0.057016084796
104.013001625       -0.0815681662468
104.513064133       -0.106402649846
105.013126641       -0.131617418412
105.513189149       -0.157311441516
106.013251656       -0.18358551585
106.513314164       -0.210543020345
107.013376672       -0.238290693098
107.51343918       -0.266939437519
108.013501688       -0.296605165363
108.513564196       -0.327409684634
109.013626703       -0.359481640536
109.513689211       -0.39295751788
110.013751719       -0.427982713447
110.513814227       -0.464712686741
111.013876735       -0.503314197321
111.513939242       -0.543966636273
112.01400175       -0.586863458291
112.514064258       -0.632213719086
113.014126766       -0.680243720033
113.514189274       -0.731198757969
114.014251781       -0.785344972103
114.514314289       -0.842971271674
115.014376797       -0.904391316332
115.514439305       -0.969945505104
116.014501813       -1.04000290789
116.514564321       -1.11496304379
117.014626828       -1.19525737094
117.514689336       -1.28135029992
118.014751844       -1.37373947405
118.514814352       -1.47295497033
119.01487686       -1.5795569606
119.514939367       -1.69413122855
120.015001875       -1.81728176086
120.515064383       -1.94961941818
121.015126891       -2.09174544654
121.515189399       -2.24422832355
122.015251906       -2.40757217108
122.515314414       -2.58217475509
123.015376922       -2.76827301494
123.51543943       -2.96587424382
124.015501938       -3.17467166354
124.515564446       -3.39394444063
125.015626953       -3.62244446293
125.515689461       -3.85827570757
126.015751969       -4.09877692417
126.515814477       -4.34042444932
127.015876985       -4.57877848768
127.515939492       -4.80850151816
128.016002       -5.02347904567
128.516064508       -5.21706755215
129.016127016       -5.38247945971
129.516189524       -5.51328959513
130.016252032       -5.60401541375
130.516314539       -5.65069226597
131.016377047       -5.65134662574
131.516439555       -5.60627464854
132.016502063       -5.51806422073
132.516564571       -5.39134928238
133.016627078       -5.23234057485
133.516689586       -5.04821972891
134.016752094       -4.84650169915
134.516814602       -4.63446170185
135.01687711       -4.41869396119
135.516939617       -4.20483242024
136.017002125       -3.99742938494
136.517064633       -3.79996413159
137.017127141       -3.61494214346
137.517189649       -3.44404518292
138.017252157       -3.28829906993
138.517314664       -3.14823575691
139.017377172       -3.02403590052
139.51743968       -2.91564582373
140.017502188       -2.82286793367
140.517564696       -2.74542650935
141.017627203       -2.6830118598
141.517689711       -2.63530580229
142.017752219       -2.60199075605
142.517814727       -2.5827438957
143.017877235       -2.57721706351
143.517939742       -2.58500274233
144.01800225       -2.60558654482
144.518064758       -2.63828753828
145.018127266       -2.68218937489
145.518189774       -2.73606757324
146.018252282       -2.79832116151
146.518314789       -2.86691980822
147.018377297       -2.93937990833
147.518439805       -3.0127840387
148.018502313       -3.08385675456
148.518564821       -3.14910482856
149.018627328       -3.20502106272
149.518689836       -3.24833812246
150.018752344       -3.2763046279
150.518814852       -3.28694406143
151.01887736       -3.27925279494
151.518939867       -3.25330020046
152.019002375       -3.21021121881
152.519064883       -3.15203533395
153.019127391       -3.08152823692
153.519189899       -3.00188666264
154.019252407       -2.91647956031
154.519314914       -2.82861104507
155.019377422       -2.74133681713
155.51943993       -2.65734104152
156.019502438       -2.57886888942
156.519564946       -2.50770275998
157.019627453       -2.44516749629
157.519689961       -2.39215052533
158.019752469       -2.34912541042
158.519814977       -2.31617069915
159.019877485       -2.29297951597
159.519939992       -2.27885882567
160.0200025       -2.27272066199
160.520065008       -2.27307091889
161.020127516       -2.27800445354
161.520190024       -2.28521787505
162.020252532       -2.29205273449
162.520315039       -2.29558080726
163.020377547       -2.29273866725
163.520440055       -2.2805102582
164.020502563       -2.25614443861
164.520565071       -2.21738206854
165.020627578       -2.16265817592
165.520690086       -2.09124327569
166.020752594       -2.00329625906
166.520815102       -1.89981807067
167.02087761       -1.78251570586
167.520940118       -1.65360336742
168.021002625       -1.51557676229
168.521065133       -1.37099583654
169.021127641       -1.22230274971
169.521190149       -1.07168968937
170.021252657       -0.921019347044
170.521315164       -0.771792202018
171.021377672       -0.625150061048
171.52144018       -0.481904084437
172.021502688       -0.342576649786
172.521565196       -0.207448683425
173.021627703       -0.0766066267964
173.521690211       0.0500145329035
174.021752719       0.172593980385
174.521815227       0.291394125131
175.021877735       0.406735808294
175.521940243       0.518979061405
176.02200275       0.628508632531
176.522065258       0.735723463724
177.022127766       0.841029356988
177.522190274       0.944834160436
178.022252782       1.0475449143
178.522315289       1.14956650203
179.022377797       1.25130144704
179.522440305       1.35315057703
180.022502813       1.45551434579
180.522565321       1.55879465647
181.022627828       1.6633970739
181.522690336       1.76973334685
182.022752844       1.87822418718
182.522815352       1.98930227157
183.02287786       2.10341544613
183.522940368       2.22103012301
184.023002875       2.34263486414
184.523065383       2.4687441488
185.023127891       2.59990231988
185.523190399       2.73668769767
186.023252907       2.87971683909
186.523315414       3.02964890337
187.023377922       3.18719006072
187.52344043       3.3530978463
188.023502938       3.52818531514
188.523565446       3.71332479058
189.023627953       3.90945091563
189.523690461       4.11756260716
190.023752969       4.33872337202
190.523815477       4.57405926457
191.023877985       4.82475354157
191.523940493       5.09203679811
192.024003       5.3771710475
192.524065508       5.68142584871
193.024128016       6.0060442091
193.524190524       6.35219564881
194.024253032       6.72091358862
194.524315539       7.11301425401
195.024378047       7.52899477352
195.524440555       7.96890936213
196.024503063       8.4322247456
196.524565571       8.91765962504
197.024628079       9.42301820044
197.524690586       9.94503442668
198.024753094       10.4792509943
198.524815602       11.0199633047
199.02487811       11.5602611917
199.524940618       12.092196376
200.025003125       12.6070885928
200.525065633       13.0959573225
201.025128141       13.5500328612
201.525190649       13.9612693119
202.025253157       14.3227658788
202.525315664       14.6290131052
203.025378172       14.8759208643
203.52544068       15.0606459559
204.025503188       15.1812989925
204.525565696       15.2366494102
205.025628204       15.2259473225
205.525690711       15.1489393117
206.025753219       15.0060855233
206.525815727       14.7989116707
207.025878235       14.5303776865
207.525940743       14.205132889
208.02600325       13.8295589166
208.526065758       13.411563362
209.026128266       12.9601555192
209.526190774       12.4848873519
210.026253282       11.9952637468
210.526315789       11.5002160126
211.026378297       11.0077018204
211.526440805       10.524457594
212.026503313       10.0558974426
212.526565821       9.60613211486
213.026628329       9.17807274535
213.526690836       8.77358462578
214.026753344       8.39366206684
214.526815852       8.03860327882
215.02687836       7.70817184632
215.526940868       7.40173764942
216.027003375       7.11839464384
216.527065883       6.85705587481
217.027128391       6.61652778969
217.527190899       6.3955666961
218.027253407       6.19292040336
218.527315914       6.00735793094
219.027378422       5.83768983782
219.52744093       5.68278133164
220.027503438       5.54155992067
220.527565946       5.41301900843
221.027628454       5.29621851541
221.527690961       5.19028334678
222.027753469       5.09440030576
222.527815977       5.00781387271
223.027878485       4.92982112267
223.527940993       4.85976593012
224.0280035       4.79703250304
224.528066008       4.74103819186
225.028128516       4.69122542623
225.528191024       4.64705254098
226.028253532       4.60798315688
226.52831604       4.57347368342
227.028378547       4.54295841067
227.528441055       4.51583156563
228.028503563       4.49142564111
228.528566071       4.46898529316
229.028628579       4.44763619363
229.528691086       4.42634848852
230.028753594       4.40389504623
230.528816102       4.37880560215
231.02887861       4.34931934083
231.528941118       4.31334049694
232.029003625       4.26840418978
232.529066133       4.21166271573
233.029128641       4.13990536408
233.529191149       4.04962653963
234.029253657       3.93715625177
234.529316165       3.79886247724
235.029378672       3.63142566049
235.52944118       3.43217212134
236.029503688       3.1994377039
236.529566196       2.93291961661
237.029628704       2.63396747798
237.529691211       2.30576690371
238.029753719       1.95338019514
238.529816227       1.58362544326
239.029878735       1.20479336171
239.529941243       0.826217967377
240.03000375       0.457733526787
240.530066258       0.109068309092
241.030128766       -0.210753889928
241.530191274       -0.493915126716
242.030253782       -0.734111007487
242.53031629       -0.926581563933
243.030378797       -1.06782040782
243.530441305       -1.1549748648
244.030503813       -1.1850129153
