#  x                 y             frequency           rot. str.
0.0      0.27920410356      15.11      1.86
0.500062507813      0.295722302673      32.37      -4.57
1.00012501563      0.313604662742      36.92      2.80
1.50018752344      0.332973549486      55.03      -3.66
2.00025003125      0.353960824211      68.12      2.28
2.50031253907      0.376707727928      107.85      -0.65
3.00037504688      0.401364371947      138.13      -1.62
3.50043755469      0.428088674641      145.95      -0.46
4.00050006251      0.457044535403      154.86      -4.32
4.50056257032      0.488398977501      171.85      0.06
5.00062507813      0.52231792157      193.33      7.94
5.50068758595      0.558960172534      222.28      -1.60
6.00075009376      0.598469119958      231.71      0.06
6.50081260158      0.640961575499      245.40      -13.86
7.00087510939      0.686513119722      247.91      8.79
7.5009376172      0.735139334317      277.62      75.57
8.00100012502      0.786772400139      310.12      8.77
8.50106263283      0.841232809793      314.35      4.27
9.00112514064      0.898196455393      342.94      -6.40
9.50118764846      0.957158193817      346.86      -2.55
10.0012501563      1.0173942316      363.66      5.42
10.5013126641      1.07792731412      383.20      1.09
11.0013751719      1.13750062097      420.16      -1.70
11.5014376797      1.19456811925      426.72      4.48
12.0015001875      1.24731029189      452.19      -12.65
12.5015626953      1.29368377523      470.18      -2.98
13.0016252032      1.33151059216      513.65      35.50
13.501687711      1.35860679498      526.35      -11.37
14.0017502188      1.37294178995      543.55      0.86
14.5018127266      1.37281009959      557.32      -7.97
15.0018752344      1.35698977954      576.74      -16.89
15.5019377422      1.3248594395      578.79      15.76
16.00200025      1.27645092003      598.06      -4.08
16.5020627578      1.21242664934      609.04      4.55
17.0021252657      1.13398618044      630.99      3.53
17.5021877735      1.04272045336      656.14      -0.56
18.0022502813      0.940440655411      660.46      -1.66
18.5023127891      0.829009366576      665.47      7.28
19.0023752969      0.710196078664      700.08      -1.28
19.5024378047      0.585570149732      729.90      3.67
20.0025003125      0.456435061773      767.58      -33.20
20.5025628204      0.323800786731      784.55      -4.93
21.0026253282      0.188387039419      796.01      2.19
21.502687836      0.0506489746107      819.54      -4.41
22.0027503438      -0.0891823539438      837.95      21.98
22.5028128516      -0.231050638506      849.33      -12.69
23.0028753594      -0.375019803864      857.51      -6.77
23.5029378672      -0.521216108568      865.77      -8.90
24.003000375      -0.669767080289      879.20      -18.22
24.5030628829      -0.820736464589      888.68      29.25
25.0031253907      -0.974053885544      896.13      -2.83
25.5031878985      -1.12943804725      919.63      -5.31
26.0032504063      -1.2863131411      932.72      -2.02
26.5033129141      -1.44371980346      945.97      6.43
27.0033754219      -1.60022463891      974.51      1.98
27.5034379297      -1.75383605468      979.06      7.13
28.0035004376      -1.90193878685      985.46      1.58
28.5035629454      -2.04126446004      996.44      7.31
29.0036254532      -2.16791961068      1020.83      74.98
29.503687961      -2.27749392473      1027.40      -29.56
30.0037504688      -2.36526763521      1052.22      -16.52
30.5038129766      -2.4265260062      1059.70      38.25
31.0038754844      -2.45697001143      1067.58      95.60
31.5039379922      -2.45318796416      1072.67      -62.21
32.0040005001      -2.41312869944      1084.70      3.57
32.5040630079      -2.33650106944      1105.07      -91.60
33.0041255157      -2.22502447304      1113.94      5.43
33.5041880235      -2.08247394089      1123.71      -4.69
34.0042505313      -1.91449722635      1145.78      42.26
34.5043130391      -1.72822105094      1168.23      -3.96
35.0043755469      -1.53169832435      1171.53      0.24
35.5044380548      -1.33327026532      1172.41      12.82
36.0045005626      -1.1409247753      1198.18      -4.64
36.5045630704      -0.961727207706      1221.08      -30.49
37.0046255782      -0.801385096946      1224.65      -34.78
37.504688086      -0.663987025977      1227.10      45.15
38.0047505938      -0.5519297698      1261.83      -2.46
38.5048131016      -0.466020373891      1268.90      1.11
39.0048756095      -0.405715783051      1273.61      2.27
39.5049381173      -0.369447226279      1282.54      -26.24
40.0050006251      -0.354972925637      1289.79      28.98
40.5050631329      -0.359710317698      1294.94      -23.25
41.0051256407      -0.381014031461      1321.62      6.11
41.5051881485      -0.416383130626      1328.52      -1.16
42.0052506563      -0.463596116943      1334.27      4.72
42.5053131641      -0.520782419918      1344.81      -6.61
43.005375672      -0.586444160267      1351.05      11.90
43.5054381798      -0.659442856994      1352.45      -33.71
44.0055006876      -0.738963972801      1358.68      8.77
44.5055631954      -0.824469181333      1373.03      -1.81
45.0056257032      -0.915643013613      1377.38      -29.15
45.505688211      -1.0123376818      1380.23      5.46
46.0057507188      -1.11451762714      1385.25      22.64
46.5058132267      -1.22220373018      1399.80      -19.98
47.0058757345      -1.33541609826      1407.90      -6.99
47.5059382423      -1.45411384302      1418.23      -9.02
48.0060007501      -1.57813025018      1457.37      0.26
48.5060632579      -1.70710225649      1480.27      0.61
49.0061257657      -1.84039427197      1491.23      -3.46
49.5061882735      -1.97701823824      1494.73      -0.94
50.0062507813      -2.1155544846      1498.16      -14.63
50.5063132892      -2.25408139062      1499.43      -21.81
51.006375797      -2.39012576475      1500.66      64.83
51.5064383048      -2.52064943948      1507.42      -4.96
52.0065008126      -2.64208955594      1511.59      0.53
52.5065633204      -2.75046861016      1550.60      -21.21
53.0066258282      -2.84158380683      1602.80      32.92
53.506688336      -2.91127274492      1631.76      -0.17
54.0067508439      -2.95573504552      1665.30      0.20
54.5068133517      -2.97187104149      2210.52      -5.59
55.0068758595      -2.95758517189      3007.30      -5.32
55.5069383673      -2.9119995816      3017.51      3.69
56.0070008751      -2.83553603204      3031.41      1.10
56.5070633829      -2.72984959517      3034.40      0.38
57.0071258907      -2.59762832535      3045.14      -33.93
57.5071883985      -2.44229936361      3050.00      -2.09
58.0072509064      -2.26769593261      3051.70      16.44
58.5073134142      -2.07773888497      3062.20      42.30
59.007375922      -1.87617386082      3063.32      -1.99
59.5074384298      -1.66638686168      3066.94      -0.97
60.0075009376      -1.45130335774      3076.08      33.81
60.5075634454      -1.23336294146      3088.91      -41.52
61.0076259532      -1.01455429933      3094.57      28.80
61.5076884611      -0.796493082687      3133.17      3.33
62.0077509689      -0.58052630571      3134.11      5.93
62.5078134767      -0.36784929633      3136.31      -2.73
63.0078759845      -0.15962353335      3190.10      -1.60
63.5079384923      0.0429148946853      3192.61      -0.24
64.0080010001      0.23836616744      3213.75      0.35
64.5080635079      0.425107323925      3222.22      0.67
65.0081260158      0.601273218862      3470.77      -14.61
65.5081885236      0.764787405406      3800.87      -9.86
66.0082510314       0.913448760191
66.5083135392       1.04507244325
67.008376047       1.15767340863
67.5084385548       1.24966915302
68.0085010626       1.32006927576
68.5085635704       1.36861674213
69.0086260783       1.39585206846
69.5086885861       1.40308638826
70.0087510939       1.39228840688
70.5088136017       1.36590756136
71.0088761095       1.32666600808
71.5089386173       1.27735313525
72.0090011251       1.22064946886
72.509063633       1.15899575934
73.0091261408       1.0945117001
73.5091886486       1.0289599661
74.0092511564       0.963746186523
74.5093136642       0.899943804815
75.009376172       0.838333523166
75.5094386798       0.779449045584
76.0095011876       0.723623221524
76.5095636955       0.671030888136
77.0096262033       0.621726454119
77.5096887111       0.575675508017
78.0097512189       0.532780526949
78.5098137267       0.492901209323
79.0098762345       0.455870160717
79.5099387423       0.421504712898
80.0100012502       0.389615617128
80.510063758       0.360013269221
81.0101262658       0.332512023618
81.5101887736       0.306933053773
82.0102512814       0.283106124925
82.5103137892       0.260870566676
83.010376297       0.240075667347
83.5104388049       0.220580659141
84.0105013127       0.202254421106
84.5105638205       0.184974994093
85.0106263283       0.168628976566
85.5106888361       0.153110850868
86.0107513439       0.138322274965
86.5108138517       0.124171363776
87.0108763595       0.110571976176
87.5109388674       0.0974430177942
88.0110013752       0.0847077655271
88.511063883       0.0722932166121
89.0111263908       0.0601294631019
89.5111888986       0.0481490912343
90.0112514064       0.0362866044872
90.5113139142       0.0244778688841
91.0113764221       0.0126595793469
91.5114389299       0.000768746569733
92.0115014377       -0.0112577949521
92.5115639455       -0.0234838553885
93.0116264533       -0.0359743297825
93.5116889611       -0.0487956019873
94.0117514689       -0.0620158999695
94.5118139767       -0.0757055843766
95.0118764846       -0.0899373447739
95.5119389924       -0.104786268283
96.0120015002       -0.120329733009
96.512064008       -0.136647063144
97.0121265158       -0.153818863567
97.5121890236       -0.171925928902
98.0122515314       -0.191047595661
98.5123140393       -0.211259377438
99.0123765471       -0.232629694777
99.5124390549       -0.25521548836
100.012501563       -0.279056495046
100.512564071       -0.304167984407
101.012626578       -0.330531817817
101.512689086       -0.358085828536
102.012751594       -0.386711759109
102.512814102       -0.41622236017
103.01287661       -0.4463487666
103.512939117       -0.476729902876
104.013001625       -0.506906347327
104.513064133       -0.536321634592
105.013126641       -0.564334130006
105.513189149       -0.590242043686
106.013251656       -0.613322591109
106.513314164       -0.632883704386
107.013376672       -0.64832342245
107.51343918       -0.659188990796
108.013501688       -0.665225936284
108.513564196       -0.666407946114
109.013626703       -0.66294155467
109.513689211       -0.655244684697
110.013751719       -0.64390343937
110.513814227       -0.629615498566
111.013876735       -0.613129957862
111.513939242       -0.595192402232
112.01400175       -0.576501235608
112.514064258       -0.557677954699
113.014126766       -0.539251153263
113.514189274       -0.52165210919
114.014251781       -0.505218920389
114.514314289       -0.49020609797
115.014376797       -0.476796972762
115.514439305       -0.465116929183
116.014501813       -0.455246144313
116.514564321       -0.447231069777
117.014626828       -0.441094311419
117.514689336       -0.436842841906
118.014751844       -0.434474649497
118.514814352       -0.433984012416
119.01487686       -0.435365619801
119.514939367       -0.438617758535
120.015001875       -0.44374476547
120.515064383       -0.450758916658
121.015126891       -0.459681895169
121.515189399       -0.470545950092
122.015251906       -0.483394832846
122.515314414       -0.498284573178
123.015376922       -0.515284135895
123.51543943       -0.534475979526
124.015501938       -0.55595651891
124.515564446       -0.579836473777
125.015626953       -0.606241063583
125.515689461       -0.63530998373
126.015751969       -0.667197068286
126.515814477       -0.702069508096
127.015876985       -0.740106449107
127.515939492       -0.781496742971
128.016002       -0.826435560232
128.516064508       -0.875119507094
129.016127016       -0.9277398141
129.516189524       -0.98447309798
130.016252032       -1.04546915222
130.516314539       -1.11083522385
131.016377047       -1.18061632261
131.516439555       -1.25477133916
132.016502063       -1.33314519027
132.516564571       -1.41543793571
133.016627078       -1.50117288376
133.516689586       -1.58966712385
134.016752094       -1.68000958566
134.516814602       -1.77105332752
135.01687711       -1.86142976755
135.516939617       -1.94959223812
136.017002125       -2.03389376676
136.517064633       -2.11269887564
137.017127141       -2.18452174455
137.517189649       -2.24817477014
138.017252157       -2.30290494248
138.517314664       -2.34849343026
139.017377172       -2.38529817329
139.51743968       -2.41422972978
140.017502188       -2.43666422296
140.517564696       -2.45430970235
141.017627203       -2.4690498416
141.517689711       -2.48279003829
142.017752219       -2.49732654589
142.517814727       -2.51425173258
143.017877235       -2.53490058844
143.517939742       -2.56033697001
144.01800225       -2.59137336451
144.518064758       -2.62861490197
145.018127266       -2.67251642629
145.518189774       -2.72344039866
146.018252282       -2.78170342132
146.518314789       -2.84760062518
147.018377297       -2.92140025642
147.518439805       -3.00330518599
148.018502313       -3.09338289839
148.518564821       -3.19146980241
149.018627328       -3.29705883835
149.518689836       -3.40918140032
150.018752344       -3.52629616932
150.518814852       -3.64619926959
151.01887736       -3.76597244447
151.518939867       -3.88198803091
152.019002375       -3.98998974272
152.519064883       -4.08526436831
153.019127391       -4.16290939253
153.519189899       -4.21818471993
154.019252407       -4.24691536834
154.519314914       -4.24589176555
155.019377422       -4.21320274246
155.51943993       -4.14844012024
156.019502438       -4.05273487717
156.519564946       -3.92861839344
157.019627453       -3.77973788444
157.519689961       -3.6104815425
158.019752469       -3.42557890992
158.519814977       -3.22973515231
159.019877485       -3.02733952802
159.519939992       -2.82226617922
160.0200025       -2.61776602083
160.520065008       -2.41643557806
161.020127516       -2.22024266665
161.520190024       -2.03058838298
162.020252532       -1.84838781965
162.520315039       -1.67415628626
163.020377547       -1.50809222702
163.520440055       -1.35015175251
164.020502563       -1.20011248152
164.520565071       -1.05762625398
165.020627578       -0.922261390256
165.520690086       -0.793535735023
166.020752594       -0.670941913785
166.520815102       -0.553966187066
167.02087761       -0.442102111651
167.520940118       -0.334859978847
168.021002625       -0.231772744773
168.521065133       -0.13239893566
169.021127641       -0.0363228373704
169.521190149       0.0568478034817
170.021252657       0.147486304587
170.521315164       0.235953384079
171.021377672       0.322604659574
171.52144018       0.407798431221
172.021502688       0.491902751203
172.521565196       0.575300869316
173.021627703       0.658394464246
173.521690211       0.741604554337
174.021752719       0.82537048664
174.521815227       0.910147773012
175.021877735       0.996405679543
175.521940243       1.08462537679
176.02200275       1.17529919871
176.522065258       1.26893124511
177.022127766       1.36603928577
177.522190274       1.4671577334
178.022252782       1.57284135075
178.522315289       1.68366932464
179.022377797       1.80024934159
179.522440305       1.92322130849
180.022502813       2.05326035259
180.522565321       2.19107869549
181.022627828       2.337425915
181.522690336       2.49308698318
182.022752844       2.65887729324
182.522815352       2.83563366137
183.02287786       3.02420001158
183.522940368       3.22540612808
184.023002875       3.44003750804
184.523065383       3.66879400118
185.023127891       3.91223464713
185.523190399       4.17070602306
186.023252907       4.44425166069
186.523315414       4.73250092185
187.023377922       5.0345374513
187.52344043       5.34875031913
188.023502938       5.67267556228
188.523565446       6.0028421929
189.023627953       6.3346445779
189.523690461       6.66227135098
190.023752969       6.97872753949
190.523815477       7.27598805139
191.023877985       7.54531308881
191.523940493       7.77773617951
192.024003       7.96470303157
192.524065508       8.09879917571
193.024128016       8.17446710077
193.524190524       8.18859347761
194.024253032       8.14085592803
194.524315539       8.03375936467
195.024378047       7.87235437219
195.524440555       7.66369497074
196.024503063       7.41613984544
196.524565571       7.13861726033
197.024628079       6.83995943368
197.524690586       6.52837746702
198.024753094       6.21110722915
198.524815602       5.89422174194
199.02487811       5.58258279852
199.524940618       5.27989443634
200.025003125       4.98882067981
200.525065633       4.71113568373
201.025128141       4.44788250847
201.525190649       4.19952481529
202.025253157       3.96608250544
202.525315664       3.74724731567
203.025378172       3.54247770967
203.52544068       3.35107438619
204.025503188       3.17223872844
204.525565696       3.00511687539
205.025628204       2.84883206166
205.525690711       2.70250762923
206.025753219       2.56528278278
206.525815727       2.43632281072
207.025878235       2.31482516813
207.525940743       2.20002253276
208.02600325       2.09118370913
208.526065758       1.9876130664
209.026128266       1.88864905105
209.526190774       1.79366220858
210.026253282       1.70205307666
210.526315789       1.61325026884
211.026378297       1.5267090517
211.526440805       1.44191072413
212.026503313       1.35836313417
212.526565821       1.27560271155
213.026628329       1.19319844838
213.526690836       1.1107583167
214.026753344       1.02793865568
214.526815852       0.944457068755
215.02687836       0.860109307017
215.526940868       0.774790428223
216.027003375       0.688520146872
216.527065883       0.601471654095
217.027128391       0.51400222129
217.527190899       0.426682582663
218.027253407       0.340320489276
218.527315914       0.255972175294
219.027378422       0.174934235725
219.52744093       0.0987082759171
220.027503438       0.028932459789
220.527565946       -0.0327216281367
221.027628454       -0.0846816112929
221.527690961       -0.125623079896
222.027753469       -0.154613844727
222.527815977       -0.171229534645
223.027878485       -0.17561887654
223.527940993       -0.168505785113
224.0280035       -0.151128234237
224.528066008       -0.125126742071
225.028128516       -0.0924041300994
225.528191024       -0.0549807454216
226.028253532       -0.0148658350693
226.52831604       0.0260415366911
227.028378547       0.0660168631644
227.528441055       0.103541565707
228.028503563       0.137307446319
228.528566071       0.166202151617
229.028628579       0.189283466502
229.528691086       0.205748966475
230.028753594       0.214905764338
230.528816102       0.216143261184
231.02887861       0.208910240723
231.528941118       0.192696496119
232.029003625       0.167018538016
232.529066133       0.131408817969
233.029128641       0.0854082440896
233.529191149       0.0285624113414
234.029253657       -0.039577281203
234.529316165       -0.119445775701
235.029378672       -0.211447401524
235.52944118       -0.315927116749
236.029503688       -0.433127011738
236.529566196       -0.563124985463
237.029628704       -0.705752451497
237.529691211       -0.860488122154
238.029753719       -1.02632563152
238.529816227       -1.20161440138
239.029878735       -1.38387625774
239.529941243       -1.56960545981
240.03000375       -1.75406752371
240.530066258       -1.93112267719
241.030128766       -2.09311235553
241.530191274       -2.23085986032
242.030253782       -2.33384525255
242.53031629       -2.3906137829
