#  x                 y             frequency           rot. str.
0.0      -0.198256779672      10.93      -1.36
0.500062507813      -0.21699492304      26.37      3.89
1.00012501563      -0.237376238403      42.85      -2.07
1.50018752344      -0.259493444158      62.23      0.30
2.00025003125      -0.283423563294      84.09      5.11
2.50031253907      -0.309218726306      111.52      4.41
3.00037504688      -0.336894236685      132.54      -7.08
3.50043755469      -0.366413457763      142.34      -0.29
4.00050006251      -0.397669192894      148.02      -3.28
4.50056257032      -0.430461483793      161.39      -3.00
5.00062507813      -0.464472205567      202.18      1.30
5.50068758595      -0.499237552668      209.21      2.37
6.00075009376      -0.534120525734      238.21      6.31
6.50081260158      -0.568286820242      243.89      12.36
7.00087510939      -0.600688941099      248.95      -9.02
7.5009376172      -0.630064603551      267.39      24.99
8.00100012502      -0.654956006783      292.65      -59.19
8.50106263283      -0.673755712539      319.24      -4.02
9.00112514064      -0.684782008097      343.93      15.25
9.50118764846      -0.68638156486      362.14      0.76
10.0012501563      -0.677050508762      382.61      2.18
10.5013126641      -0.655558303389      389.44      -18.06
11.0013751719      -0.621054467238      416.37      -9.34
11.5014376797      -0.573138339137      437.33      -10.01
12.0015001875      -0.511877811949      453.17      13.44
12.5015626953      -0.43777301984      472.15      9.58
13.0016252032      -0.351672354953      520.05      -3.68
13.501687711      -0.254657274195      532.11      9.63
14.0017502188      -0.14791654817      549.73      19.78
14.5018127266      -0.0326293772459      552.34      -26.65
15.0018752344      0.0901284195955      563.84      -5.43
15.5019377422      0.219447760405      581.40      11.11
16.00200025      0.354618037379      605.08      2.42
16.5020627578      0.495130373479      613.29      -21.91
17.0021252657      0.640657603061      641.85      2.50
17.5021877735      0.791016401858      651.27      -15.63
18.0022502813      0.946116059177      653.22      17.16
18.5023127891      1.10589699034      661.84      -9.54
19.0023752969      1.27026077388      701.96      -9.92
19.5024378047      1.43899264274      729.85      -16.19
20.0025003125      1.61167721465      774.03      17.01
20.5025628204      1.78760899318      779.68      -11.89
21.0026253282      1.9657009316      796.07      7.57
21.502687836      2.14439715551      816.34      39.99
22.0027503438      2.32159962736      833.10      -56.25
22.5028128516      2.49462259328      844.37      29.47
23.0028753594      2.66019206363      856.32      11.79
23.5029378672      2.81450875426      861.47      -34.07
24.003000375      2.95338990408      865.93      -21.41
24.5030628829      3.07249648757      883.25      -28.10
25.0031253907      3.16763716143      891.93      25.03
25.5031878985      3.23512084973      927.97      -34.94
26.0032504063      3.27211111947      940.86      2.72
26.5033129141      3.27692428947      948.32      2.63
27.0033754219      3.24921566889      974.21      0.09
27.5034379297      3.19001646313      982.96      2.78
28.0035004376      3.10161364171      987.57      -0.03
28.5035629454      2.98729729369      991.33      28.95
29.0036254532      2.85102443883      1017.78      -0.06
29.503687961      2.69705814006      1025.68      15.71
30.0037504688      2.52963534393      1043.41      -18.42
30.5038129766      2.35270075588      1045.41      -107.25
31.0038754844      2.16972416524      1062.32      7.90
31.5039379922      1.98360103799      1065.88      37.39
32.0040005001      1.79662429631      1080.73      -8.12
32.5040630079      1.61050961766      1109.73      102.45
33.0041255157      1.42645607957      1126.14      23.92
33.5041880235      1.24522661692      1134.69      23.24
34.0042505313      1.06723675034      1155.47      -21.89
34.5043130391      0.892644111601      1160.62      25.57
35.0043755469      0.721434718399      1174.84      -2.98
35.5044380548      0.553504444411      1186.58      -9.06
36.0045005626      0.388735650101      1205.53      -193.66
36.5045630704      0.22706955096      1217.80      -219.57
37.0046255782      0.0685746885658      1231.74      26.64
37.504688086      -0.0864890888152      1239.62      70.56
38.0047505938      -0.237613351797      1249.24      82.50
38.5048131016      -0.383994868403      1260.43      84.53
39.0048756095      -0.524507103381      1264.46      116.46
39.5049381173      -0.657698041813      1276.23      -37.87
40.0050006251      -0.781823624915      1286.74      -0.66
40.5050631329      -0.894924474121      1292.96      -41.18
41.0051256407      -0.994948786431      1327.89      -6.36
41.5051881485      -1.07991614512      1334.92      3.02
42.0052506563      -1.14810665447      1338.94      -8.83
42.5053131641      -1.19824996838      1348.23      -39.24
43.005375672      -1.22968311203      1354.48      10.56
43.5054381798      -1.24244769237      1356.92      -19.63
44.0055006876      -1.2373071061      1363.60      15.22
44.5055631954      -1.21568037265      1376.72      -13.39
45.0056257032      -1.17950630341      1381.53      17.92
45.505688211      -1.13106443826      1383.86      10.57
46.0057507188      -1.0727840575      1389.44      -6.16
46.5058132267      -1.00706936696      1398.68      49.44
47.0058757345      -0.936160194991      1418.59      33.43
47.5059382423      -0.862036930998      1432.60      73.02
48.0060007501      -0.786369155552      1468.12      -17.35
48.5060632579      -0.710501201093      1478.84      4.81
49.0061257657      -0.635465012148      1490.00      0.39
49.5061882735      -0.562010459736      1491.86      -0.63
50.0062507813      -0.49064467615      1494.62      6.26
50.5063132892      -0.421674072307      1505.54      -0.62
51.006375797      -0.355244824072      1505.94      17.41
51.5064383048      -0.291379411773      1511.49      -14.09
52.0065008126      -0.23000814406      1513.88      -19.38
52.5065633204      -0.170995507752      1545.50      28.37
53.0066258282      -0.114161738471      1609.76      -3.17
53.506688336      -0.0593002972817      1639.49      -10.56
54.0067508439      -0.00619205082791      1662.80      24.39
54.5068133517      0.0453830492463      2207.55      5.53
55.0068758595      0.0956360653331      3004.33      0.01
55.5069383673      0.144760351876      3019.04      10.41
56.0070008751      0.1929235776      3025.43      -3.01
56.5070633829      0.240260266948      3029.07      3.42
57.0071258907      0.286864897532      3031.86      -0.47
57.5071883985      0.33278590648      3043.87      20.49
58.0072509064      0.378021314459      3050.08      21.26
58.5073134142      0.422517026858      3059.00      2.37
59.007375922      0.466169129538      3062.73      -19.02
59.5074384298      0.508831531485      3065.25      -16.40
60.0075009376      0.550329969509      3071.60      57.99
60.5075634454      0.590482571311      3076.97      -32.19
61.0076259532      0.629125889455      3088.69      25.76
61.5076884611      0.666143792264      3115.87      4.70
62.0077509689      0.701495266634      3132.87      -0.14
62.5078134767      0.735236591055      3138.19      -3.39
63.0078759845      0.767533880938      3186.99      -0.00
63.5079384923      0.798663720397      3202.88      -0.09
64.0080010001      0.829002027931      3218.92      -5.39
64.5080635079      0.859003690377      3236.97      0.24
65.0081260158      0.889177093089      3469.71      -7.54
65.5081885236      0.920058077172      3786.10      6.97
66.0082510314       0.952187144956
66.5083135392       0.986092346348
67.008376047       1.02227874795
67.5084385548       1.06122413007
68.0085010626       1.10337976964
68.5085635704       1.14917484562
69.0086260783       1.19902302785
69.5086885861       1.25333002805
70.0087510939       1.31250117358
70.5088136017       1.3769483246
71.0088761095       1.44709564821
71.5089386173       1.52338387421
72.0090011251       1.60627268845
72.509063633       1.69624087843
73.0091261408       1.79378374431
73.5091886486       1.89940713415
74.0092511564       2.0136172658
74.5093136642       2.13690526995
75.009376172       2.26972514925
75.5094386798       2.41246362804
76.0095011876       2.56540022037
76.5095636955       2.72865585624
77.0096262033       2.90212870494
77.5096887111       3.08541659707
78.0097512189       3.27772689332
78.5098137267       3.47777701541
79.0098762345       3.68369232306
79.5099387423       3.89291258876
80.0100012502       4.10212360911
80.510063758       4.30723551767
81.0101262658       4.50343239046
81.5101887736       4.68531635912
82.0102512814       4.84716116965
82.5103137892       4.98327351227
83.010376297       5.08843665889
83.5104388049       5.15838486271
84.0105013127       5.19023684795
84.5105638205       5.1828115335
85.0106263283       5.13676433204
85.5106888361       5.05451609969
86.0107513439       4.93998945035
86.5108138517       4.79820506018
87.0108763595       4.63481228097
87.5109388674       4.45562938052
88.0110013752       4.26625245432
88.511063883       4.07176686175
89.0111263908       3.87656980527
89.5111888986       3.68429348816
90.0112514064       3.49780742294
90.5113139142       3.31927514176
91.0113764221       3.15024246977
91.5114389299       2.99173913929
92.0115014377       2.84438086914
92.5115639455       2.70846389714
93.0116264533       2.58404778784
93.5116889611       2.47102504343
94.0117514689       2.369177763
94.5118139767       2.27822255307
95.0118764846       2.19784532007
95.5119389924       2.12772766571
96.0120015002       2.06756649999
96.512064008       2.01708828137
97.0121265158       1.97605904982
97.5121890236       1.9442911693
98.0122515314       1.92164746025
98.5123140393       1.90804318248
99.0123765471       1.90344612617
99.5124390549       1.90787487523
100.012501563       1.92139511881
100.512564071       1.94411369454
101.012626578       1.97616984611
101.512689086       2.01772296542
102.012751594       2.06893586751
102.512814102       2.12995242767
103.01287661       2.20086821982
103.512939117       2.28169268042
104.013001625       2.37230136128
104.513064133       2.47237714127
105.013126641       2.58134000058
105.513189149       2.69826631509
106.013251656       2.82180080499
106.513314164       2.95006741131
107.013376672       3.08058943967
107.51343918       3.21023390827
108.013501688       3.33519923287
108.513564196       3.45106757472
109.013626703       3.55294124266
109.513689211       3.63567437955
110.013751719       3.69419578487
110.513814227       3.72389755812
111.013876735       3.72104199822
111.513939242       3.68312326072
112.01400175       3.60911821353
112.514064258       3.49957667117
113.014126766       3.35653208433
113.514189274       3.18325071572
114.014251781       2.98386850657
114.514314289       2.76298100816
115.014376797       2.5252501027
115.514439305       2.27507556442
116.014501813       2.01635732916
116.514564321       1.75235309017
117.014626828       1.48562030673
117.514689336       1.21802340358
118.014751844       0.950784907322
118.514814352       0.684561427436
119.01487686       0.419529613437
119.514939367       0.155471894804
120.015001875       -0.108144009684
120.515064383       -0.372094539837
121.015126891       -0.637339071135
121.515189399       -0.904966826569
122.015251906       -1.17614974582
122.515314414       -1.45209854014
123.015376922       -1.73401880436
123.51543943       -2.02306384279
124.015501938       -2.32028075781
124.515564446       -2.62654637649
125.015626953       -2.94248984673
125.515689461       -3.26839939071
126.015751969       -3.60411200566
126.515814477       -3.94888716172
127.015876985       -4.30126909056
127.515939492       -4.65894732235
128.016002       -5.01863167012
128.516064508       -5.37596527733
129.016127016       -5.72550617168
129.516189524       -6.06081147825
130.016252032       -6.37465564397
130.516314539       -6.65940132141
131.016377047       -6.90751726374
131.516439555       -7.11220382349
132.016502063       -7.26805079494
132.516564571       -7.37162617398
133.016627078       -7.42189014853
133.516689586       -7.42035288591
134.016752094       -7.370943608
134.516814602       -7.27961772211
135.01687711       -7.1537794122
135.516939617       -7.00162401725
136.017002125       -6.83150281651
136.517064633       -6.65138830205
137.017127141       -6.46848261474
137.517189649       -6.28897759492
138.017252157       -6.11794970743
138.517314664       -5.95935949303
139.017377172       -5.81612168448
139.51743968       -5.6902152907
140.017502188       -5.58280924177
140.517564696       -5.49438591125
141.017627203       -5.42485049806
141.517689711       -5.3736184734
142.017752219       -5.33967652484
142.517814727       -5.32161554055
143.017877235       -5.3176380393
143.517939742       -5.32554746271
144.01800225       -5.34273252765
144.518064758       -5.3661651727
145.018127266       -5.39243370499
145.518189774       -5.41783158924
146.018252282       -5.43851539361
146.518314789       -5.45073238483
147.018377297       -5.45110075743
147.518439805       -5.43690745017
148.018502313       -5.4063756915
148.518564821       -5.35885245526
149.018627328       -5.29487767707
149.518689836       -5.21612021326
150.018752344       -5.12519317716
150.518814852       -5.02538456194
151.01887736       -4.92035107674
151.518939867       -4.81382181895
152.019002375       -4.70934664738
152.519064883       -4.6101075295
153.019127391       -4.5187952691
153.519189899       -4.43754246381
154.019252407       -4.36789746135
154.519314914       -4.31082285379
155.019377422       -4.26670423633
155.51943993       -4.23535911407
156.019502438       -4.21604090446
156.519564946       -4.20743832481
157.019627453       -4.20767569725
157.519689961       -4.21432446294
158.019752469       -4.22443981913
158.519814977       -4.23463782328
159.019877485       -4.24122619785
159.519939992       -4.24039522983
160.0200025       -4.22846336328
160.520065008       -4.20215694228
161.020127516       -4.15888890508
161.520190024       -4.0969923666
162.020252532       -4.01586669544
162.520315039       -3.91600748523
163.020377547       -3.79891462594
163.520440055       -3.66689746373
164.020502563       -3.52281487345
164.520565071       -3.36979569964
165.020627578       -3.2109808542
165.520690086       -3.04931591107
166.020752594       -2.88740764836
166.520815102       -2.72744434333
167.02087761       -2.57117035998
167.520940118       -2.41990116887
168.021002625       -2.27456445775
168.521065133       -2.13575494349
169.021127641       -2.00379349908
169.521190149       -1.87878428913
170.021252657       -1.76066622972
170.521315164       -1.6492570579
171.021377672       -1.54428962772
171.52144018       -1.44544085511
172.021502688       -1.35235415308
172.521565196       -1.26465635803
173.021627703       -1.18197014988
173.521690211       -1.10392288296
174.021752719       -1.0301526217
174.521815227       -0.96031204165
175.021877735       -0.894070730149
175.521940243       -0.831116309221
176.02200275       -0.771154708751
176.522065258       -0.713909840505
177.022127766       -0.659122861613
177.522190274       -0.606551167376
178.022252782       -0.555967215483
178.522315289       -0.507157254829
179.022377797       -0.459920010191
179.522440305       -0.414065357571
180.022502813       -0.369413012816
180.522565321       -0.32579124707
181.022627828       -0.283035636106
181.522690336       -0.240987845816
182.022752844       -0.199494452868
182.522815352       -0.158405797228
183.02287786       -0.117574861835
183.522940368       -0.0768561738916
184.023002875       -0.0361047219675
184.523065383       0.00482511661995
185.023127891       0.0460806429855
185.523190399       0.0878119019345
186.023252907       0.130172746872
186.523315414       0.173321903139
187.023377922       0.217424024669
187.52344043       0.262650733586
188.023502938       0.309181625235
188.523565446       0.357205211619
189.023627953       0.406919763667
189.523690461       0.458533996247
190.023752969       0.512267518566
190.523815477       0.568350945325
191.023877985       0.627025529865
191.523940493       0.688542138562
192.024003       0.753159335705
192.524065508       0.821140290905
193.024128016       0.892748159658
193.524190524       0.968239528546
194.024253032       1.04785547146
194.524315539       1.13180975186
195.024378047       1.22027375832
195.524440555       1.31335791859
196.024503063       1.41108965456
196.524565571       1.51338847615
197.024628079       1.62003961406
197.524690586       1.73066866723
198.024753094       1.84472101084
198.524815602       1.96145094944
199.02487811       2.07992639544
199.524940618       2.19905461581
200.025003125       2.31763267696
200.525065633       2.43442221344
201.025128141       2.54824224169
201.525190649       2.65806706621
202.025253157       2.76311093391
202.525315664       2.86287938179
203.025378172       2.95717088605
203.52544068       3.04602140903
204.025503188       3.12959666083
204.525565696       3.20804895648
205.025628204       3.28136422459
205.525690711       3.34922817003
206.025753219       3.41093867826
206.525815727       3.4653852172
207.025878235       3.51110636325
207.525940743       3.54642451428
208.02600325       3.56964330398
208.526065758       3.57927998136
209.026128266       3.57429507674
209.526190774       3.5542786382
210.026253282       3.51955869634
210.526315789       3.47121299806
211.026378297       3.4109854829
211.526440805       3.34112826345
212.026503313       3.26420227452
212.526565821       3.18287247211
213.026628329       3.09972744078
213.526690836       3.0171421224
214.026753344       2.93719037079
214.526815852       2.86160436338
215.02687836       2.79177199444
215.526940868       2.72876112243
216.027003375       2.67335997284
216.527065883       2.62612491907
217.027128391       2.58742929465
217.527190899       2.5575091924
218.027253407       2.53650406994
218.527315914       2.52449132416
219.027378422       2.5215148677
219.52744093       2.52760823884
220.027503438       2.54281301026
220.527565946       2.5671933253
221.027628454       2.60084735113
221.527690961       2.64391634711
222.027753469       2.69659193215
222.527815977       2.75912201614
223.027878485       2.8318157447
223.527940993       2.9150476976
224.0280035       3.00926147617
224.528066008       3.11497271239
225.028128516       3.23277142516
225.528191024       3.36332353297
226.028253532       3.50737119886
226.52831604       3.66573152726
227.028378547       3.83929294448
227.528441055       4.0290083712
228.028503563       4.23588403109
228.528566071       4.4609624379
229.028628579       4.70529777528
229.528691086       4.96992155752
230.028753594       5.25579618785
230.528816102       5.56375390545
231.02887861       5.89441877069
231.528941118       6.24810997893
232.029003625       6.62472617222
232.529066133       7.02361281761
233.029128641       7.44341838425
233.529191149       7.88195003384
234.029253657       8.3360454961
234.529316165       8.80148371534
235.029378672       9.27296082515
235.52944118       9.74415729714
236.029503688       10.2079137268
236.529566196       10.6565147367
237.029628704       11.0820539007
237.529691211       11.4768229659
238.029753719       11.8336460621
238.529816227       12.1460758837
239.029878735       12.4083923427
239.529941243       12.6153943192
240.03000375       12.762040179
240.530066258       12.8430530527
241.030128766       12.8526420553
241.530191274       12.7844867785
242.030253782       12.6320863668
242.53031629       12.3894943049
243.030378797       12.052363104
243.530441305       11.6191332044
244.030503813       11.0921429238
244.530566321       10.4784303314
245.030628829       9.79004805544
