#  x                 y             frequency           intensity
0.0       9.87659059451e-18       70.88       1.09794
0.500062507813       1.71505970207e-17       239.66       1.26062
1.00012501563       2.96656963135e-17       255.61       1.55977
1.50018752344       5.11131873064e-17       282.31       27.67461
2.00025003125       8.7723205591e-17       339.09       12.02530
2.50031253907       1.49968185266e-16       392.52       1.09476
3.00037504688       2.55380005537e-16       532.10       2.04830
3.50043755469       4.33189339992e-16       638.65       7.13162
4.00050006251       7.31933698504e-16       744.01       14.98685
4.50056257032       1.23188122863e-15       801.68       9.64199
5.00062507813       2.06523294934e-15       845.29       80.66253
5.50068758595       3.44883459361e-15       873.59       78.83455
6.00075009376       5.73692007974e-15       940.49       37.61404
6.50081260158       9.50579286407e-15       1015.05       1.06535
7.00087510939       1.56892074793e-14       1059.16       33.28068
7.5009376172       2.57938861745e-14       1130.67       11.97439
8.00100012502       4.22411433387e-14       1206.44       16.48133
8.50106263283       6.8906098939e-14       1271.96       3.37576
9.00112514064       1.11965126488e-13       1335.32       10.19476
9.50118764846       1.81222033659e-13       1360.51       32.03991
10.0012501563       2.92174518735e-13       1406.82       135.52523
10.5013126641       4.69220294735e-13       1414.03       231.15464
11.0013751719       7.50610009638e-13       1497.37       6.34035
11.5014376797       1.19606567804e-12       1500.88       8.41054
12.0015001875       1.89844848863e-12       1658.56       38.66607
12.5015626953       3.00155095413e-12       1840.19       319.86396
13.0016252032       4.72711029811e-12       3033.58       10.80046
13.501687711       7.41564385929e-12       3037.80       23.23145
14.0017502188       1.15879097972e-11       3095.35       23.70192
14.5018127266       1.80370064426e-11       3131.38       6.73838
15.0018752344       2.79657794236e-11       3453.27       244.11749
15.5019377422       4.31909253112e-11       3507.90       0.76344
16.00200025       6.6444831102e-11       3584.52       9.46046
16.5020627578       1.01819980202e-10
17.0021252657       1.55420366119e-10
17.5021877735       2.36312100273e-10
18.0022502813       3.57904455988e-10
18.5023127891       5.39947287608e-10
19.0023752969       8.11406972327e-10
19.5024378047       1.21458865317e-09
20.0025003125       1.81101820872e-09
20.5025628204       2.68979713848e-09
21.0026253282       3.97941608024e-09
21.502687836       5.86438246932e-09
22.0027503438       8.60851689396e-09
22.5028128516       1.25874424612e-08
23.0028753594       1.83336853522e-08
23.5029378672       2.65989909575e-08
24.003000375       3.84400251406e-08
24.5030628829       5.53356833166e-08
25.0031253907       7.9346907385e-08
25.5031878985       1.13333380895e-07
26.0032504063       1.61245943474e-07
26.5033129141       2.28519288849e-07
27.0033754219       3.22596791013e-07
27.5034379297       4.53628503184e-07
28.0035004376       6.35394922749e-07
28.5035629454       8.86523512e-07
29.0036254532       1.23208278441e-06
29.503687961       1.70566066208e-06
30.0037504688       2.35206051015e-06
30.5038129766       3.23078055554e-06
31.0038754844       4.4204811545e-06
31.5039379922       6.02469047402e-06
32.0040005001       8.17905348882e-06
32.5040630079       1.10604926203e-05
33.0041255157       1.48987216114e-05
33.5041880235       1.99906379248e-05
34.0042505313       2.67182133896e-05
34.5043130391       3.55706079548e-05
35.0043755469       4.71713466701e-05
35.5044380548       6.23115242123e-05
36.0045005626       8.1990132373e-05
36.5045630704       0.000107462740926
37.0046255782       0.000140299897012
37.504688086       0.000182456737095
38.0047505938       0.000236355421641
38.5048131016       0.00030498209726
39.0048756095       0.000392000153743
39.5049381173       0.00050188156214
40.0050006251       0.000640058040798
40.5050631329       0.000813093683989
41.0051256407       0.00102888048568
41.5051881485       0.00129685788197
42.0052506563       0.00162825700248
42.5053131641       0.00203636974625
43.005375672       0.00253684206774
43.5054381798       0.00314798995932
44.0055006876       0.00389113554209
44.5055631954       0.00479095942366
45.0056257032       0.00587586405408
45.505688211       0.00717834122473
46.0057507188       0.00873533513139
46.5058132267       0.0105885905984
47.0058757345       0.0127849741836
47.5059382423       0.0153767540142
48.0060007501       0.0184218224135
48.5060632579       0.0219838437606
49.0061257657       0.0261323086673
49.5061882735       0.0309424745741
50.0062507813       0.0364951723673
50.5063132892       0.0428764587143
51.006375797       0.050177094621
51.5064383048       0.0584918323238
52.0065008126       0.0679184951351
52.5065633204       0.0785568383192
53.0066258282       0.0905071835273
53.506688336       0.103868824749
54.0067508439       0.11873821012
54.5068133517       0.135206911152
55.0068758595       0.153359398877
55.5069383673       0.173270654881
56.0070008751       0.195003653897
56.5070633829       0.218606763392
57.0071258907       0.244111113935
57.5071883985       0.271528001855
58.0072509064       0.300846392307
58.5073134142       0.332030596055
59.007375922       0.365018196679
59.5074384298       0.399718306113
60.0075009376       0.436010225301
60.5075634454       0.473742582913
61.0076259532       0.512733018519
61.5076884611       0.552768467292
62.0077509689       0.593606091252
62.5078134767       0.634974887531
63.0078759845       0.676577987444
63.5079384923       0.718095641652
64.0080010001       0.759188867067
64.5080635079       0.799503710865
65.0081260158       0.838676066862
65.5081885236       0.876336960156
66.0082510314       0.912118198267
66.5083135392       0.945658271553
67.008376047       0.976608373286
67.5084385548       1.00463840087
68.0085010626       1.02944279487
68.5085635704       1.05074607202
69.0086260783       1.06830791244
69.5086885861       1.08192766987
70.0087510939       1.09144818666
70.5088136017       1.09675881199
71.0088761095       1.09779754251
71.5089386173       1.09455222722
72.0090011251       1.08706080412
72.509063633       1.07541056198
73.0091261408       1.05973644742
73.5091886486       1.0402184632
74.0092511564       1.01707822782
74.5093136642       0.990574788354
75.009376172       0.960999797139
75.5094386798       0.928672177753
76.0095011876       0.893932416448
76.5095636955       0.857136621486
77.0096262033       0.818650494512
77.5096887111       0.778843355327
78.0097512189       0.738082354474
78.5098137267       0.696726997285
79.0098762345       0.655124088956
79.5099387423       0.61360319358
80.0100012502       0.572472681379
80.510063758       0.532016418604
81.0101262658       0.49249113423
81.5101887736       0.454124477567
82.0102512814       0.41711376178
82.5103137892       0.381625370676
83.010376297       0.347794790497
83.5104388049       0.315727215162
84.0105013127       0.28549866273
84.5105638205       0.257157532978
85.0106263283       0.23072653081
85.5106888361       0.206204877842
86.0107513439       0.183570734569
86.5108138517       0.162783757916
87.0108763595       0.143787723346
87.5109388674       0.126513146645
88.0110013752       0.110879847753
88.511063883       0.0967994070899
89.0111263908       0.0841774734484
89.5111888986       0.0729158912713
90.0112514064       0.0629146237718
90.5113139142       0.0540734565624
91.0113764221       0.0462934740525
91.5114389299       0.0394783076758
92.0115014377       0.0335351609121
92.5115639455       0.0283756209909
93.0116264533       0.0239162711079
93.5116889611       0.0200791199392
94.0117514689       0.0167918672801
94.5118139767       0.0139880258132
95.0118764846       0.0116069194396
95.5119389924       0.00959357838145
96.0120015002       0.00789855050029
96.512064008       0.00647764708676
97.0121265158       0.00529163987261
97.5121890236       0.00430592429726
98.0122515314       0.00349016222054
98.5123140393       0.00281791539102
99.0123765471       0.00226627912286
99.5124390549       0.00181552385621
100.012501563       0.00144875062015
100.512564071       0.00115156490999
101.012626578       0.000911772152227
101.512689086       0.000719096769148
102.012751594       0.000564925871613
102.512814102       0.000442077797828
103.01287661       0.000344595067726
103.512939117       0.000267560822783
104.013001625       0.00020693745401
104.513064133       0.000159425869156
105.013126641       0.000122343696483
105.513189149       9.3520649824e-05
106.013251656       7.120927212e-05
106.513314164       5.40093176255e-05
107.013376672       4.08041135042e-05
107.51343918       3.07073484141e-05
108.013501688       2.30188593504e-05
108.513564196       1.71881207075e-05
109.013626703       1.27842749851e-05
109.513689211       9.47167799758e-06
110.013751719       6.99005929549e-06
110.513814227       5.13851829833e-06
111.013876735       3.76268678369e-06
111.513939242       2.74448803357e-06
112.01400175       1.9940118186e-06
112.514064258       1.44310266129e-06
113.014126766       1.04032692828e-06
113.514189274       7.47042939719e-07
114.014251781       5.34348265594e-07
114.514314289       3.80720581876e-07
115.014376797       2.70203779833e-07
115.514439305       1.91020332829e-07
116.014501813       1.34515053239e-07
116.514564321       9.43550808842e-08
117.014626828       6.59269231837e-08
117.514689336       4.58842288353e-08
118.014751844       3.1810257112e-08
118.514814352       2.19671661436e-08
119.01487686       1.51106798075e-08
119.514939367       1.03537359343e-08
120.015001875       7.06664506551e-09
120.515064383       4.80432729372e-09
121.015126891       3.25353142797e-09
121.515189399       2.19472716684e-09
122.015251906       1.4747186946e-09
122.515314414       9.87054073012e-10
123.015376922       6.58075643538e-10
123.51543943       4.37032568206e-10
124.015501938       2.89104532529e-10
124.515564446       1.90501812333e-10
125.015626953       1.25039271811e-10
125.515689461       8.17517151567e-11
126.015751969       5.3241517224e-11
126.515814477       3.45387874032e-11
127.015876985       2.2318595557e-11
127.515939492       1.43657978638e-11
128.016002       9.21076608948e-12
128.516064508       5.88253972183e-12
129.016127016       3.74228704744e-12
129.516189524       2.3714416188e-12
130.016252032       1.49689346181e-12
130.516314539       9.41179498442e-13
131.016377047       5.89463798559e-13
131.516439555       3.67743437511e-13
132.016502063       2.28526115373e-13
132.516564571       1.41458763058e-13
133.016627078       8.7222190251e-14
133.516689586       5.35706891126e-14
134.016752094       3.27740861436e-14
134.516814602       1.9972713015e-14
135.01687711       1.21240200409e-14
135.516939617       7.33093455393e-15
136.017002125       4.41545184011e-15
136.517064633       2.64907390757e-15
137.017127141       1.58312829413e-15
137.517189649       9.42412981048e-16
138.017252157       5.58816886552e-16
138.517314664       3.3006608054e-16
139.017377172       1.94193810577e-16
139.51743968       1.13808050612e-16
140.017502188       6.64375636873e-17
140.517564696       3.86329191198e-17
141.017627203       2.23771341018e-17
141.517689711       1.29108405377e-17
142.017752219       7.42006453991e-18
142.517814727       4.24779903006e-18
143.017877235       2.42227447636e-18
143.517939742       1.37589679053e-18
144.01800225       7.78487198106e-19
144.518064758       4.38753107826e-19
145.018127266       2.46315674424e-19
145.518189774       1.37742197018e-19
146.018252282       7.67264448243e-20
146.518314789       4.2572216085e-20
147.018377297       2.35293837818e-20
147.518439805       1.29538231136e-20
148.018502313       7.10376335725e-21
148.518564821       3.88045031253e-21
149.018627328       2.11144075263e-21
149.518689836       1.14440264919e-21
150.018752344       6.17848762683e-22
150.518814852       3.32268819879e-22
151.01887736       1.77993330105e-22
151.518939867       9.49805128248e-23
152.019002375       5.04915823631e-23
152.519064883       2.67482620685e-23
153.019127391       1.41377616683e-23
153.519189899       7.48839379377e-24
154.019252407       4.03884876698e-24
154.519314914       2.33976689986e-24
155.019377422       1.67018467204e-24
155.51943993       1.74429892697e-24
156.019502438       2.59452746102e-24
156.519564946       4.58512045174e-24
157.019627453       8.56179558737e-24
157.519689961       1.61961896064e-23
158.019752469       3.06592674083e-23
158.519814977       5.78829779789e-23
159.019877485       1.08889728235e-22
159.519939992       2.04063137988e-22
160.0200025       3.80939156218e-22
160.520065008       7.08357565788e-22
161.020127516       1.3120588281e-21
161.520190024       2.42079151551e-21
162.020252532       4.44902283761e-21
162.520315039       8.14469843261e-21
163.020377547       1.48521216927e-20
163.520440055       2.69777113362e-20
164.020502563       4.88117997582e-20
164.520565071       8.7972645391e-20
165.020627578       1.57933258309e-19
165.520690086       2.82424684357e-19
166.020752594       5.03077416226e-19
166.520815102       8.92627175268e-19
167.02087761       1.57764214738e-18
167.520940118       2.77747404227e-18
168.021002625       4.87073644396e-18
168.521065133       8.5082915875e-18
169.021127641       1.48044818841e-17
169.521190149       2.56594399787e-17
170.021252657       4.43000531547e-17
170.521315164       7.61841162592e-17
171.021377672       1.30505175144e-16
171.52144018       2.22686631871e-16
172.021502688       3.78498072726e-16
172.521565196       6.40820374348e-16
173.021627703       1.08071719941e-15
173.521690211       1.81547773964e-15
174.021752719       3.03789602933e-15
174.521815227       5.0635837487e-15
175.021877735       8.40709977334e-15
175.521940243       1.39039282778e-14
176.02200275       2.29050871879e-14
176.522065258       3.7586292815e-14
177.022127766       6.1437021046e-14
177.522190274       1.00030840828e-13
178.022252782       1.622335989e-13
178.522315289       2.62090209958e-13
179.022377797       4.2175856245e-13
179.522440305       6.76052045514e-13
180.022502813       1.07944238611e-12
180.522565321       1.71680874553e-12
181.022627828       2.71986582376e-12
181.522690336       4.29216250631e-12
182.022752844       6.74695706681e-12
182.522815352       1.05643516849e-11
183.02287786       1.64771034283e-11
183.522940368       2.55989409841e-11
184.023002875       3.96156005879e-11
184.523065383       6.1067986894e-11
185.023127891       9.37700348174e-11
185.523190399       1.43422624425e-10
186.023252907       2.1851153491e-10
186.523315414       3.31615013841e-10
187.023377922       5.01299322027e-10
187.52344043       7.54854354754e-10
188.023502938       1.13222392576e-09
188.523565446       1.69162699539e-09
189.023627953       2.51756100183e-09
189.523690461       3.73214505396e-09
190.023752969       5.51112351116e-09
190.523815477       8.10634142533e-09
191.023877985       1.18771641118e-08
191.523940493       1.73341975763e-08
192.024003       2.51998437193e-08
192.524065508       3.64917821476e-08
193.024128016       5.26375202622e-08
193.524190524       7.56308346023e-08
194.024253032       1.0824441282e-07
194.524315539       1.54317511392e-07
195.024378047       2.19143231269e-07
195.524440555       3.09987399587e-07
196.024503063       4.36780411319e-07
196.524565571       6.13035182403e-07
197.024628079       8.57059126334e-07
197.524690586       1.19354640454e-06
198.024753094       1.65565932062e-06
198.524815602       2.28773542155e-06
199.02487811       3.14879051177e-06
199.524940618       4.31702832776e-06
200.025003125       5.89561606571e-06
200.525065633       8.02004233134e-06
201.025128141       1.08674414e-05
201.525190649       1.46683458726e-05
202.025253157       1.97214196752e-05
202.525315664       2.64118254187e-05
203.025378172       3.52339945929e-05
203.52544068       4.68196956059e-05
204.025503188       6.19724323221e-05
204.525565696       8.170935271e-05
205.025628204       0.000107312000653
205.525690711       0.000140387399852
206.025753219       0.000182941111584
206.525815727       0.000237464050732
207.025878235       0.000307034968115
207.525940743       0.000395440600824
208.02600325       0.000507315543264
208.526065758       0.000648303885099
209.026128266       0.000825244581684
209.526190774       0.00104638234981
210.026253282       0.00132160559729
210.526315789       0.0016627124794
211.026378297       0.00208370560939
211.526440805       0.00260111521532
212.026503313       0.00323434961753
212.526565821       0.00400607078681
213.026628329       0.0049425914296
213.526690836       0.00607428853272
214.026753344       0.00743602659964
214.526815852       0.00906758194307
215.02687836       0.0110140574011
215.526940868       0.0133262747632
216.027003375       0.0160611300922
216.527065883       0.0192818950882
217.027128391       0.0230584457487
217.527190899       0.0274673979526
218.027253407       0.0325921283388
218.527315914       0.038522658102
219.027378422       0.0453553772114
219.52744093       0.0531925872023
220.027503438       0.0621418422193
220.527565946       0.0723150705074
221.027628454       0.0838274621326
221.527690961       0.096796113424
222.027753469       0.111338424476
222.527815977       0.127570252989
223.027878485       0.14560383569
223.527940993       0.165545497395
224.0280035       0.187493177257
224.528066008       0.211533811649
225.028128516       0.237740623035
225.528191024       0.266170373893
226.028253532       0.296860653627
226.52831604       0.329827274188
227.028378547       0.365061856267
227.528441055       0.402529691958
228.028503563       0.442167971384
228.528566071       0.483884459456
229.028628579       0.527556704507
229.528691086       0.573031852709
230.028753594       0.620127130977
230.528816102       0.668631046423
231.02887861       0.718305332663
231.528941118       0.768887652697
232.029003625       0.820095045148
232.529066133       0.871628076145
233.029128641       0.923175633691
233.529191149       0.974420275989
234.029253657       1.02504402081
234.529316165       1.07473444059
235.029378672       1.12319090858
235.52944118       1.17013082599
236.029503688       1.21529564958
236.529566196       1.25845653409
237.029628704       1.29941940541
237.529691211       1.33802928794
238.029753719       1.37417372411
238.529816227       1.40778514528
239.029878735       1.43884207988
239.529941243       1.4673691177
240.03000375       1.49343558614
240.530066258       1.51715293476
241.030128766       1.53867086737
241.530191274       1.55817230399
242.030253782       1.57586729755
242.53031629       1.59198607028
243.030378797       1.6067713706
243.530441305       1.6204703823
244.030503813       1.6333264417
244.530566321       1.64557083509
245.030628829       1.65741495702
245.530691336       1.66904310925
246.030753844       1.68060621081
246.530816352       1.69221667153
247.03087886       1.70394465501
247.530941368       1.71581592369
248.031003875       1.72781141897
248.531066383       1.73986868529
249.031128891       1.75188519913
249.531191399       1.76372361535
250.031253907       1.77521889368
250.531316415       1.7861872213
251.031378922       1.79643660246
251.53144143       1.80577894671
252.031503938       1.8140434521
252.531566446       1.82109105127
253.031628954       1.82682966579
253.531691461       1.83122999823
254.031753969       1.83434158132
254.531816477       1.83630879877
255.031878985       1.83738659214
255.531941493       1.83795557091
256.032004001       1.83853624775
256.532066508       1.83980212668
257.032129016       1.84259137663
257.532191524       1.84791682624
258.032254032       1.85697401677
258.53231654       1.87114704795
259.032379047       1.89201194719
