#  x                 y             frequency           intensity
0.0       4.83694983091e-08       45.56       0.53372
0.500062507813       6.89166497118e-08       217.46       3.12958
1.00012501563       9.78092307806e-08       253.94       4.89303
1.50018752344       1.38273400424e-07       278.96       34.83516
2.00025003125       1.94715514216e-07       321.43       2.86101
2.50031253907       2.73127595633e-07       405.98       7.16597
3.00037504688       3.81622278589e-07       497.25       24.35692
3.50043755469       5.31135062462e-07       557.29       21.21199
4.00050006251       7.36341599623e-07       611.45       59.99388
4.50056257032       1.01684981579e-06       738.76       71.00240
5.00062507813       1.39874132138e-06       798.56       66.16312
5.50068758595       1.9165542131e-06       857.38       64.31082
6.00075009376       2.61582041665e-06       940.86       8.00754
6.50081260158       3.55629561881e-06       1025.94       0.66310
7.00087510939       4.81604900437e-06       1092.92       25.85400
7.5009376172       6.49661383837e-06       1136.38       222.06582
8.00100012502       8.7294387363e-06       1163.93       72.74420
8.50106263283       1.16839234506e-05       1257.61       1.39666
9.00112514064       1.55773722202e-05       1315.50       15.92185
9.50118764846       2.06872520075e-05       1348.04       18.12046
10.0012501563       2.73662018186e-05       1414.43       27.17217
10.5013126641       3.60603019465e-05       1424.89       1.57188
11.0013751719       4.73311771112e-05       1490.08       8.50798
11.5014376797       6.18825732822e-05       1496.71       3.64266
12.0015001875       8.05921120313e-05       1652.01       40.89521
12.5015626953       0.000104548985422       1819.69       281.10906
13.0016252032       0.000135098404797       2912.69       51.78875
13.501687711       0.000173893653627       3045.06       19.85459
14.0017502188       0.000222956612234       3109.29       18.48926
14.5018127266       0.000284747614298       3131.66       13.47437
15.0018752344       0.000362245454375       3497.21       1.01071
15.5019377422       0.000459038284381       3577.93       4.22756
16.00200025       0.000579426006806       3727.53       63.16380
16.5020627578       0.000728534584874
17.0021252657       0.000912442436673
17.5021877735       0.00113831875372
18.0022502813       0.00141457317813
18.5023127891       0.0017510157817
19.0023752969       0.00215902571272
19.5024378047       0.00265172621299
20.0025003125       0.00324416296352
20.5025628204       0.00395348190241
21.0026253282       0.00479910178708
21.502687836       0.00580287586682
22.0027503438       0.00698923611751
22.5028128516       0.00838531260181
23.0028753594       0.0100210196953
23.5029378672       0.0119291002071
24.003000375       0.0141451178727
24.5030628829       0.0167073883621
25.0031253907       0.0196568388789
25.5031878985       0.0230367866874
26.0032504063       0.0268926275363
26.5033129141       0.0312714260037
27.0033754219       0.036221401298
27.5034379297       0.0417913040303
28.0035004376       0.0480296819476
28.5035629454       0.0549840355473
29.0036254532       0.0626998678636
29.503687961       0.0712196364569
30.0037504688       0.0805816196702
30.5038129766       0.0908187134241
31.0038754844       0.101957179085
31.5039379922       0.114015367095
32.0040005001       0.127002444943
32.5040630079       0.140917161474
33.0041255157       0.155746682357
33.5041880235       0.171465533494
34.0042505313       0.188034690162
34.5043130391       0.205400849562
35.0043755469       0.22349592306
35.5044380548       0.242236781737
36.0045005626       0.261525284784
36.5045630704       0.281248614942
37.0046255782       0.301279938507
37.504688086       0.321479399687
38.0047505938       0.341695450409
38.5048131016       0.361766507265
39.0048756095       0.381522917547
39.5049381173       0.400789206431
40.0050006251       0.419386567818
40.5050631329       0.437135552394
41.0051256407       0.45385889852
41.5051881485       0.469384444971
42.0052506563       0.483548059558
42.5053131641       0.496196514571
43.005375672       0.507190238962
43.5054381798       0.516405878353
44.0055006876       0.523738597307
44.5055631954       0.52910406382
45.0056257032       0.532440063544
45.505688211       0.533707700521
46.0057507188       0.532892152047
46.5058132267       0.530002957169
47.0058757345       0.525073830973
47.5059382423       0.518162009708
48.0060007501       0.509347144551
48.5060632579       0.498729773877
49.0061257657       0.48642941503
49.5061882735       0.472582326203
50.0062507813       0.457338997007
50.5063132892       0.440861432247
51.006375797       0.423320297307
51.5064383048       0.404891995138
52.0065008126       0.385755744324
52.5065633204       0.366090725029
53.0066258282       0.346073355036
53.506688336       0.325874751829
54.0067508439       0.305658428971
54.5068133517       0.285578266289
55.0068758595       0.265776783907
55.5069383673       0.24638374034
56.0070008751       0.227515065053
56.5070633829       0.209272126367
57.0071258907       0.191741326759
57.5071883985       0.174994009616
58.0072509064       0.159086654593
58.5073134142       0.144061333083
59.007375922       0.129946390966
59.5074384298       0.116757322797
60.0075009376       0.10449779997
60.5075634454       0.0931608149808
61.0076259532       0.0827299047046
61.5076884611       0.0731804173566
62.0077509689       0.0644807904775
62.5078134767       0.056593810568
63.0078759845       0.0494778288136
63.5079384923       0.0430879114473
64.0080010001       0.037376907552
64.5080635079       0.0322964213355
65.0081260158       0.0277976799927
65.5081885236       0.0238322920807
66.0082510314       0.0203528947892
66.5083135392       0.0173136915195
67.008376047       0.0146708837601
67.5084385548       0.0123830033341
68.0085010626       0.0104111527066
68.5085635704       0.0087191621899
69.0086260783       0.00727367360712
69.5086885861       0.00604416030991
70.0087510939       0.00500289344772
70.5088136017       0.0041248641033
71.0088761095       0.00338767040105
71.5089386173       0.00277137801359
72.0090011251       0.0022583616891
72.509063633       0.00183313454389
73.0091261408       0.00148217095333
73.5091886486       0.00119372796363
74.0092511564       0.000957669266063
74.5093136642       0.0007652949466
75.009376172       0.000609179463537
75.5094386798       0.000483019624103
76.0095011876       0.000381493734868
76.5095636955       0.000300132591075
77.0096262033       0.00023520254571
77.5096887111       0.000183600555744
78.0097512189       0.000142760834476
78.5098137267       0.000110572537767
79.0098762345       8.53077700567e-05
79.5099387423       6.55591048482e-05
80.0100012502       5.01857655481e-05
80.510063758       3.82675981472e-05
81.0101262658       2.90659799117e-05
81.5101887736       2.19908413995e-05
82.0102512814       1.65730269536e-05
82.5103137892       1.24412764378e-05
83.010376297       9.30317426683e-06
83.5104388049       6.92947744459e-06
84.0105013127       5.1412997821e-06
84.5105638205       3.79969277395e-06
85.0106263283       2.79722339034e-06
85.5106888361       2.05120436648e-06
86.0107513439       1.49828291243e-06
86.5108138517       1.09013889147e-06
87.0108763595       7.90083430294e-07
87.5109388674       5.70383806225e-07
88.0110013752       4.10170604784e-07
88.511063883       2.93808930417e-07
89.0111263908       2.09637303206e-07
89.5111888986       1.48996219565e-07
90.0112514064       1.05483625304e-07
90.5113139142       7.4387156604e-08
91.0113764221       5.22533312119e-08
91.5114389299       3.65622673076e-08
92.0115014377       2.54832825439e-08
92.5115639455       1.76921548735e-08
93.0116264533       1.2235147474e-08
93.5116889611       8.42831575269e-09
94.0117514689       5.78329704408e-09
94.5118139767       3.95287712207e-09
95.0118764846       2.6912512349e-09
95.5119389924       1.82514882428e-09
96.0120015002       1.2329499203e-09
96.512064008       8.29651501925e-10
97.0121265158       5.56095119518e-10
97.5121890236       3.71283437578e-10
98.0122515314       2.46925068101e-10
98.5123140393       1.63579132622e-10
99.0123765471       1.0794281329e-10
99.5124390549       7.0951679083e-11
100.012501563       4.64552429116e-11
100.512564071       3.02977170955e-11
101.012626578       1.96828593806e-11
101.512689086       1.27370714923e-11
102.012751594       8.21020679695e-12
102.512814102       5.27159113343e-12
103.01287661       3.37157212446e-12
103.512939117       2.14796056198e-12
104.013001625       1.36308602362e-12
104.513064133       8.61635014919e-13
105.013126641       5.42533458935e-13
105.513189149       3.40277182036e-13
106.013251656       2.12589710814e-13
106.513314164       1.32298453553e-13
107.013376672       8.20106789325e-14
107.51343918       5.06394709487e-14
108.013501688       3.11466272392e-14
108.513564196       1.90825321955e-14
109.013626703       1.16456596975e-14
109.513689211       7.07938122486e-15
110.013751719       4.28676441753e-15
110.513814227       2.58563398623e-15
111.013876735       1.55348688452e-15
111.513939242       9.29718017429e-16
112.01400175       5.54240192472e-16
112.514064258       3.2911516877e-16
113.014126766       1.94670836278e-16
113.514189274       1.14698305767e-16
114.014251781       6.73156779811e-17
114.514314289       3.93530646052e-17
115.014376797       2.29162739762e-17
115.514439305       1.32926804952e-17
116.014501813       7.68040708154e-18
116.514564321       4.42037410016e-18
117.014626828       2.53417688266e-18
117.514689336       1.44716462217e-18
118.014751844       8.23193745934e-19
118.514814352       4.66433033763e-19
119.01487686       2.63256832554e-19
119.514939367       1.48003885117e-19
120.015001875       8.28838074182e-20
120.515064383       4.62348425598e-20
121.015126891       2.56904780791e-20
121.515189399       1.4219296242e-20
122.015251906       7.83947774241e-21
122.515314414       4.30525890341e-21
123.015376922       2.35512807073e-21
123.51543943       1.28331389847e-21
124.015501938       6.96553345081e-22
124.515564446       3.76598849784e-22
125.015626953       2.02818116961e-22
125.515689461       1.08802220247e-22
126.015751969       5.81396515539e-23
126.515814477       3.09465530054e-23
127.015876985       1.64082857798e-23
127.515939492       8.6665798597e-24
128.016002       4.56091690813e-24
128.516064508       2.39335187421e-24
129.016127016       1.25593967593e-24
129.516189524       6.66286153994e-25
130.016252032       3.71407882308e-25
130.516314539       2.43642903963e-25
131.016377047       2.27646347487e-25
131.516439555       3.17420135281e-25
132.016502063       5.5426809216e-25
132.516564571       1.04507020569e-24
133.016627078       2.00863400769e-24
133.516689586       3.86939760623e-24
134.016752094       7.43694087644e-24
134.516814602       1.42440286449e-23
135.01687711       2.71783209457e-23
135.516939617       5.16568706613e-23
136.017002125       9.78002486222e-23
136.517064633       1.84440288965e-22
137.017127141       3.46477443046e-22
137.517189649       6.48331777576e-22
138.017252157       1.2084335665e-21
138.517314664       2.24363067149e-21
139.017377172       4.1493786755e-21
139.51743968       7.6439508558e-21
140.017502188       1.40267098947e-20
140.517564696       2.56387505219e-20
141.017627203       4.66810924545e-20
141.517689711       8.46619522222e-20
142.017752219       1.52946188722e-19
142.517814727       2.75227707558e-19
143.017877235       4.93342760226e-19
143.517939742       8.8086322457e-19
144.01800225       1.56664757712e-18
144.518064758       2.77547459797e-18
145.018127266       4.89785941624e-18
145.518189774       8.60951103151e-18
146.018252282       1.50748767914e-17
146.518314789       2.6292517323e-17
147.018377297       4.5678694069e-17
147.518439805       7.90493498829e-17
148.018502313       1.3626553917e-16
148.518564821       2.33979004211e-16
149.018627328       4.00194255808e-16
149.518689836       6.81817157915e-16
150.018752344       1.15709259531e-15
150.518814852       1.95601155351e-15
151.01887736       3.29365290501e-15
151.518939867       5.5244285025e-15
152.019002375       9.22996379639e-15
152.519064883       1.53608677752e-14
153.019127391       2.54644685665e-14
153.519189899       4.20490894935e-14
154.019252407       6.91642526386e-14
154.519314914       1.13320868332e-13
155.019377422       1.84944411147e-13
155.51943993       3.0065999301e-13
156.019502438       4.86870193053e-13
156.519564946       7.85332995035e-13
157.019627453       1.26182060343e-12
157.519689961       2.0195029762e-12
158.019752469       3.21954495528e-12
158.519814977       5.11266812631e-12
159.019877485       8.08730504858e-12
159.519939992       1.27427499131e-11
160.0200025       1.9999797934e-11
160.520065008       3.12673567519e-11
161.020127516       4.86922499668e-11
161.520190024       7.55321122413e-11
162.020252532       1.16709586348e-10
162.520315039       1.79632346385e-10
163.020377547       2.75401098806e-10
163.520440055       4.20581250176e-10
164.020502563       6.39789722745e-10
164.520565071       9.69455155226e-10
165.020627578       1.4632593312e-09
165.520690086       2.19997625385e-09
166.020752594       3.29471457409e-09
166.520815102       4.91496821756e-09
167.02087761       7.30342785647e-09
167.520940118       1.08102537038e-08
168.021002625       1.59385255232e-08
168.521065133       2.34079570007e-08
169.021127641       3.42438032217e-08
169.521190149       4.99003495098e-08
170.021252657       7.24316360975e-08
170.521315164       1.04726385807e-07
171.021377672       1.50829763345e-07
171.52144018       2.16381982905e-07
172.021502688       3.09213364284e-07
172.521565196       4.40147793078e-07
173.021627703       6.24082370139e-07
173.521690211       8.81431187255e-07
174.021752719       1.24004665299e-06
174.521815227       1.73776381216e-06
175.021877735       2.42575305299e-06
175.521940243       3.3729160906e-06
176.02200275       4.67162098627e-06
176.522065258       6.44514626013e-06
177.022127766       8.85729412933e-06
177.522190274       1.2124740972e-05
178.022252782       1.65328218025e-05
178.522315289       2.24555973938e-05
179.022377797       3.03812301515e-05
179.522440305       4.09439001213e-05
180.022502813       5.49637273419e-05
180.522565321       7.34964321467e-05
181.022627828       9.7894760979e-05
181.522690336       0.000129884030421
182.022752844       0.000171654493259
182.522815352       0.000225973602076
183.02287786       0.000296321629858
183.522940368       0.000387054492004
184.023002875       0.000503597984581
184.523065383       0.000652677990387
185.023127891       0.00084259148302
185.523190399       0.00108352335088
186.023252907       0.00138791413383
186.523315414       0.00177088367607
187.023377922       0.00225071540701
187.52344043       0.00284940541996
188.023502938       0.00359327967798
188.523565446       0.00451368148755
189.023627953       0.00564772979511
189.523690461       0.00703914683662
190.023752969       0.00873915116908
190.523815477       0.0108074091122
191.023877985       0.0133130341179
191.523940493       0.0163356195783
192.024003       0.0199662861108
192.524065508       0.024308719493
193.024128016       0.0294801702454
193.524190524       0.0356123805232
194.024253032       0.0428523986292
194.524315539       0.0513632363272
195.024378047       0.0613243194368
195.524440555       0.0729316782219
196.024503063       0.0863978211318
196.524565571       0.101951233841
197.024628079       0.119835445581
197.524690586       0.140307606793
198.024753094       0.163636526409
198.524815602       0.190100123897
199.02487811       0.219982260718
199.524940618       0.253568928185
200.025003125       0.291143783828
200.525065633       0.332983046279
201.025128141       0.37934977895
201.525190649       0.430487615238
202.025253157       0.486614001892
202.525315664       0.54791306206
203.025378172       0.614528204426
203.52544068       0.686554628935
204.025503188       0.764031901843
204.525565696       0.846936792151
205.025628204       0.935176576837
205.525690711       1.02858303261
206.025753219       1.12690733628
206.525815727       1.22981609336
207.025878235       1.33688870463
207.525940743       1.44761626276
208.02600325       1.56140214528
208.526065758       1.67756443701
209.026128266       1.79534027442
209.526190774       1.9138921573
210.026253282       2.03231622137
210.526315789       2.14965240956
211.026378297       2.26489642202
211.526440805       2.3770132678
212.026503313       2.48495218526
212.526565821       2.5876626476
213.026628329       2.68411112497
213.526690836       2.77329823824
214.026753344       2.85427591305
214.526815852       2.92616412769
215.02687836       2.98816684569
215.526940868       3.03958673418
216.027003375       3.07983829238
216.527065883       3.10845905005
217.027128391       3.12511854315
217.527190899       3.12962483133
218.027253407       3.12192838735
218.527315914       3.10212326028
219.027378422       3.07044548972
219.52744093       3.02726882431
220.027503438       2.97309787266
220.527565946       2.90855888501
221.027628454       2.83438842745
221.527690961       2.75142026569
222.027753469       2.660570819
222.527815977       2.56282357752
223.027878485       2.45921289519
223.527940993       2.35080757651
224.0280035       2.23869466829
224.528066008       2.12396384773
225.028128516       2.00769276665
225.528191024       1.89093367057
226.028253532       1.77470156103
226.52831604       1.65996411329
227.028378547       1.54763350056
227.528441055       1.43856021246
228.028503563       1.33352889203
228.528566071       1.2332561534
229.028628579       1.13839028417
229.528691086       1.0495126825
230.028753594       0.967140832517
230.528816102       0.891732581505
231.02887861       0.823691450922
231.528941118       0.763372690635
232.029003625       0.711089771603
232.529066133       0.667121007336
233.029128641       0.631715998126
233.529191149       0.60510160417
234.029253657       0.587487173664
234.529316165       0.579068779263
235.029378672       0.580032250199
235.52944118       0.590554827146
236.029503688       0.610805311732
236.529566196       0.64094263164
237.029628704       0.681112794503
237.529691211       0.731444258288
238.029753719       0.792041801584
238.529816227       0.86297903287
239.029878735       0.944289732355
239.529941243       1.03595827186
240.03000375       1.13790940627
240.530066258       1.24999777282
241.030128766       1.37199747013
241.530191274       1.50359211703
242.030253782       1.64436580906
242.53031629       1.79379539838
243.030378797       1.9512445187
243.530441305       2.11595976052
244.030503813       2.28706937289
244.530566321       2.46358482648
245.030628829       2.64440551854
245.530691336       2.82832683553
246.030753844       3.0140517136
246.530816352       3.20020575402
247.03087886       3.38535586078
247.530941368       3.56803227453
248.031003875       3.74675378242
248.531066383       3.92005579116
249.031128891       4.08652086217
249.531191399       4.24481122733
250.031253907       4.39370273201
250.531316415       4.53211959296
251.031378922       4.65916931196
251.53144143       4.77417705442
252.031503938       4.87671878457
252.531566446       4.96665244691
253.031628954       5.04414649452
253.531691461       5.10970508991
254.031753969       5.1641893392
254.531816477       5.20883396594
255.031878985       5.24525888318
255.531941493       5.27547518022
256.032004001       5.30188510218
256.532066508       5.32727566402
257.032129016       5.35480560572
257.532191524       5.38798546083
258.032254032       5.43065057768
258.53231654       5.48692700112
259.032379047       5.56119019516
259.532441555       5.65801666442
260.032504063       5.78212861824
260.532566571       5.93833191655
261.032629079       6.13144764515
261.532691586       6.36623779029
