#  x                 y             frequency           intensity
0.0       4.04939017072e-12       57.97       1.02185
0.500062507813       6.35702133876e-12       232.14       0.45268
1.00012501563       9.94078834584e-12       274.74       17.91268
1.50018752344       1.54842829231e-11       279.39       11.55034
2.00025003125       2.40250600494e-11       354.04       11.32620
2.50031253907       3.71313704627e-11       409.50       4.36586
3.00037504688       5.71637338475e-11       530.19       1.32889
3.50043755469       8.76603724006e-11       568.53       4.36648
4.00050006251       1.3390264232e-10       738.46       8.56138
4.50056257032       2.03740841639e-10       803.95       6.58149
5.00062507813       3.08794927468e-10       844.93       111.61990
5.50068758595       4.66192553632e-10       878.71       72.57249
6.00075009376       7.01073610824e-10       938.89       35.88603
6.50081260158       1.05018308951e-09       1020.12       0.64631
7.00087510939       1.56700194136e-09       1080.45       44.31326
7.5009376172       2.32904114672e-09       1146.05       10.92202
8.00100012502       3.44816390083e-09       1211.76       19.53782
8.50106263283       5.08512641119e-09       1233.26       9.54459
9.00112514064       7.46996761783e-09       1314.33       10.22985
9.50118764846       1.09304690229e-08       1390.31       7.02028
10.0012501563       1.59316952131e-08       1409.18       141.12782
10.5013126641       2.31306743309e-08       1413.63       255.65040
11.0013751719       3.34516628933e-08       1490.99       3.55462
11.5014376797       4.81892583192e-08       1500.23       10.66903
12.0015001875       6.91489970934e-08       1658.39       35.03292
12.5015626953       9.88381578049e-08       1836.95       311.61950
13.0016252032       1.40723462283e-07       3032.01       7.91280
13.501687711       1.99577461433e-07       3040.57       18.34373
14.0017502188       2.81941878964e-07       3095.56       26.75512
14.5018127266       3.96744393359e-07       3131.84       6.58565
15.0018752344       5.5611565338e-07       3444.69       264.57850
15.5019377422       7.76466197649e-07       3498.36       0.58142
16.00200025       1.07989890675e-06       3582.53       9.79868
16.5020627578       1.49605225098e-06
17.0021252657       2.06449357353e-06
17.5021877735       2.83781069876e-06
18.0022502813       3.88558506402e-06
18.5023127891       5.29947116452e-06
19.0023752969       7.1996562062e-06
19.5024378047       9.74303128481e-06
20.0025003125       1.31334718744e-05
20.5025628204       1.76347014934e-05
21.0026253282       2.35862984685e-05
21.502687836       3.14235017641e-05
22.0027503438       4.17015774551e-05
22.5028128516       5.51256216044e-05
23.0028753594       7.25867963224e-05
23.5029378672       9.52061210226e-05
24.003000375       0.000124387066664
24.5030628829       0.000161878322189
25.0031253907       0.000209848213163
25.5031878985       0.00027097234499
26.0032504063       0.000348536107679
26.5033129141       0.000446553704951
27.0033754219       0.00056990534489
27.5034379297       0.00072449413842
28.0035004376       0.000917424080296
28.5035629454       0.00115720021918
29.0036254532       0.00145395174247
29.503687961       0.00181967819195
30.0037504688       0.00226851837439
30.5038129766       0.00281704072365
31.0038754844       0.0034845529015
31.5039379922       0.00429342728762
32.0040005001       0.00526943771065
32.5040630079       0.00644210132052
33.0041255157       0.00784501792022
33.5041880235       0.00951619739098
34.0042505313       0.0114983641033
34.5043130391       0.0138392254592
35.0043755469       0.0165916900277
35.5044380548       0.0198140191911
36.0045005626       0.0235698949077
36.5045630704       0.0279283852066
37.0046255782       0.032963788479
37.504688086       0.038755337607
38.0047505938       0.0453867455925
38.5048131016       0.052945575706
39.0048756095       0.061522421346
39.5049381173       0.0712098838553
40.0050006251       0.0821013405106
40.5050631329       0.0942894997936
41.0051256407       0.10786474683
41.5051881485       0.122913288475
42.0052506563       0.139515114792
42.5053131641       0.157741801494
43.005375672       0.17765418597
43.5054381798       0.199299957728
44.0055006876       0.222711211895
44.5055631954       0.247902021795
45.0056257032       0.274866092955
45.505688211       0.303574565995
46.0057507188       0.333974039354
46.5058132267       0.365984884331
47.0058757345       0.39949992425
47.5059382423       0.434383546507
48.0060007501       0.470471310589
48.5060632579       0.507570106969
49.0061257657       0.545458911007
49.5061882735       0.583890162864
50.0062507813       0.622591789242
50.5063132892       0.661269865811
51.006375797       0.699611901077
51.5064383048       0.737290703621
52.0065008126       0.773968775829
52.5065633204       0.809303159072
53.0066258282       0.84295063848
53.506688336       0.874573200666
54.0067508439       0.903843625639
54.5068133517       0.930451085239
55.0068758595       0.954106615224
55.5069383673       0.974548326915
56.0070008751       0.99154622731
56.5070633829       1.00490652378
57.0071258907       1.01447530079
57.5071883985       1.02014147109
58.0072509064       1.02183892233
58.5073134142       1.01954780101
59.007375922       1.01329489903
59.5074384298       1.00315313219
60.0075009376       0.989240124872
60.5075634454       0.971715939399
61.0076259532       0.950780011216
61.5076884611       0.926667372038
62.0077509689       0.899644260907
62.5078134767       0.87000323767
63.0078759845       0.838057924099
63.5079384923       0.804137504467
64.0080010001       0.768581119741
64.5080635079       0.731732287743
65.0081260158       0.693933475848
65.5081885236       0.655520943351
66.0082510314       0.616819958115
66.5083135392       0.57814047695
67.008376047       0.539773362136
67.5084385548       0.501987188188
68.0085010626       0.465025674109
68.5085635704       0.429105757629
69.0086260783       0.394416309952
69.5086885861       0.361117472809
70.0087510939       0.329340584724
70.5088136017       0.299188650594
71.0088761095       0.270737298303
71.5089386173       0.244036158265
72.0090011251       0.21911059653
72.509063633       0.195963729394
73.0091261408       0.174578647115
73.5091886486       0.154920776218
74.0092511564       0.136940313567
74.5093136642       0.120574670737
75.009376172       0.10575087373
75.5094386798       0.0923878704921
76.0095011876       0.0803987066604
76.5095636955       0.0696925380855
77.0096262033       0.0601764567773
77.5096887111       0.0517571146364
78.0097512189       0.044342136524
78.5098137267       0.0378413206989
79.0098762345       0.0321676302998
79.5099387423       0.0272379843057
80.0100012502       0.0229738602429
80.510063758       0.0193017238227
81.0101262658       0.0161533027459
81.5101887736       0.0134657231454
82.0102512814       0.011181527663
82.5103137892       0.00924859404309
83.010376297       0.00761997250659
83.5104388049       0.0062536591216
84.0105013127       0.00511232103512
84.5105638205       0.00416298786052
85.0106263283       0.00337672181684
85.5106888361       0.00272827746666
86.0107513439       0.00219576016234
86.5108138517       0.00176029063999
87.0108763595       0.00140568163529
87.5109388674       0.00111813096613
88.0110013752       0.000885934251517
88.511063883       0.00069921932482
89.0111263908       0.000549703454117
89.5111888986       0.000430473698945
90.0112514064       0.000335790102682
90.5113139142       0.000260910930383
91.0113764221       0.000201938798799
91.5114389299       0.000155686292579
92.0115014377       0.000119559502122
92.5115639455       9.14578382555e-05
93.0116264533       6.96884618635e-05
93.5116889611       5.28936989572e-05
94.0117514689       3.99898810367e-05
94.5118139767       3.01161463006e-05
95.0118764846       2.25918500727e-05
95.5119389924       1.68813552514e-05
96.0120015002       1.25650995651e-05
96.512064008       9.31596122516e-06
97.0121265158       6.88006471369e-06
97.5121890236       5.0612814354e-06
98.0122515314       3.70878419984e-06
98.5123140393       2.70710907056e-06
99.0123765471       1.96826267542e-06
99.5124390549       1.42548769518e-06
100.012501563       1.02836432403e-06
100.512564071       7.38981631638e-07
101.012626578       5.28960690011e-07
101.512689086       3.77151870749e-07
102.012751594       2.67862703049e-07
102.512814102       1.89500927905e-07
103.01287661       1.33540669017e-07
103.512939117       9.37386872947e-08
104.013001625       6.55431485601e-08
104.513064133       4.56497965064e-08
105.013126641       3.16703967954e-08
105.513189149       2.18862459997e-08
106.013251656       1.50657987239e-08
106.513314164       1.03303767059e-08
107.013376672       7.05575138024e-09
107.51343918       4.800356516e-09
108.013501688       3.25317053178e-09
108.513564196       2.19605533632e-09
109.013626703       1.47666792606e-09
109.513689211       9.89066557086e-10
110.013751719       6.59889633755e-10
110.513814227       4.38551102976e-10
111.013876735       2.90316836048e-10
111.513939242       1.91437647905e-10
112.01400175       1.25743513224e-10
112.514064258       8.22710317364e-11
113.014126766       5.36180987445e-11
113.514189274       3.4807993537e-11
114.014251781       2.25086621264e-11
114.514314289       1.44985138424e-11
115.014376797       9.30251557787e-12
115.514439305       5.94539121896e-12
116.014501813       3.78497993677e-12
116.514564321       2.40021330671e-12
117.014626828       1.51613966381e-12
117.514689336       9.53963356214e-13
118.014751844       5.97898259489e-13
118.514814352       3.73272502609e-13
119.01487686       2.32128155656e-13
119.514939367       1.43791348318e-13
120.015001875       8.8723936911e-14
120.515064383       5.45320677492e-14
121.015126891       3.33861422781e-14
121.515189399       2.03602744127e-14
122.015251906       1.23681324449e-14
122.515314414       7.48389594431e-15
123.015376922       4.51080929468e-15
123.51543943       2.70822227491e-15
124.015501938       1.6196353906e-15
124.515564446       9.64835608052e-16
125.015626953       5.72522423786e-16
125.515689461       3.38403458039e-16
126.015751969       1.99241680625e-16
126.515814477       1.16849999123e-16
127.015876985       6.82622098433e-17
127.515939492       3.97223639796e-17
128.016002       2.30246449863e-17
128.516064508       1.32939460389e-17
129.016127016       7.64571303329e-18
129.516189524       4.38011172746e-18
130.016252032       2.49951355647e-18
130.516314539       1.42078681282e-18
131.016377047       8.0446184642e-19
131.516439555       4.537170486e-19
132.016502063       2.54898839526e-19
132.516564571       1.42644073049e-19
133.016627078       7.95138380734e-20
133.516689586       4.41504176156e-20
134.016752094       2.44191210494e-20
134.516814602       1.34532853098e-20
135.01687711       7.38294767357e-21
135.516939617       4.03584372447e-21
136.017002125       2.19756639349e-21
136.517064633       1.19193557404e-21
137.017127141       6.4397153584e-22
137.517189649       3.46564181079e-22
138.017252157       1.8578206716e-22
138.517314664       9.92035062808e-23
139.017377172       5.27659029594e-23
139.51743968       2.7956504552e-23
140.017502188       1.47541976379e-23
140.517564696       7.75625176825e-24
141.017627203       4.06156222502e-24
141.517689711       2.11857797834e-24
142.017752219       1.10084523597e-24
142.517814727       5.69925189088e-25
143.017877235       2.94190097861e-25
143.517939742       1.51829182875e-25
144.01800225       7.91741834977e-26
144.518064758       4.33438801347e-26
145.018127266       2.79420908364e-26
145.518189774       2.58438831417e-26
146.018252282       3.60252668135e-26
146.518314789       6.30824463375e-26
147.018377297       1.19223935822e-25
147.518439805       2.29562494565e-25
148.018502313       4.42905347646e-25
148.518564821       8.52485655333e-25
149.018627328       1.63507115253e-24
149.518689836       3.12415834182e-24
150.018752344       5.94625782741e-24
150.518814852       1.12735428944e-23
151.01887736       2.12902595993e-23
151.518939867       4.00502096924e-23
152.019002375       7.50467333671e-23
152.519064883       1.40075414796e-22
153.019127391       2.6043248656e-22
153.519189899       4.82315825114e-22
154.019252407       8.89756109952e-22
154.519314914       1.63498419709e-21
155.019377422       2.99267291237e-21
155.51943993       5.45642335394e-21
156.019502438       9.90968793584e-21
156.519564946       1.79273051434e-20
157.019627453       3.23052537039e-20
157.519689961       5.79875038476e-20
158.019752469       1.03680906492e-19
158.519814977       1.84657210171e-19
159.019877485       3.27594700179e-19
159.519939992       5.78909367903e-19
160.0200025       1.01903101099e-18
160.520065008       1.7867645889e-18
161.020127516       3.12068825164e-18
161.520190024       5.42920884754e-18
162.020252532       9.40861772371e-18
162.520315039       1.6241203628e-17
163.020377547       2.79263201551e-17
163.520440055       4.78313156436e-17
164.020502563       8.16044897855e-17
164.520565071       1.38681616067e-16
165.020627578       2.34761484425e-16
165.520690086       3.95856620781e-16
166.020752594       6.64893507236e-16
166.520815102       1.11242152583e-15
167.02087761       1.85391487506e-15
167.520940118       3.0776080343e-15
168.021002625       5.08908773419e-15
168.521065133       8.38242510873e-15
169.021127641       1.37531613766e-14
169.521190149       2.2477008451e-14
170.021252657       3.6591279155e-14
170.521315164       5.93362079018e-14
171.021377672       9.58440366542e-14
171.52144018       1.54210348433e-13
172.021502688       2.47152525891e-13
172.521565196       3.94566038189e-13
173.021627703       6.27447599284e-13
173.521690211       9.93890033842e-13
174.021752719       1.56820315248e-12
174.521815227       2.46473040359e-12
175.021877735       3.85868773918e-12
175.521940243       6.01745651935e-12
176.02200275       9.34736926255e-12
176.522065258       1.44633518464e-11
177.022127766       2.22921325132e-11
177.522190274       3.42245221941e-11
178.022252782       5.23391040899e-11
178.522315289       7.97293618485e-11
179.022377797       1.20979951111e-10
179.522440305       1.82857018507e-10
180.022502813       2.75304288705e-10
180.522565321       4.12873902732e-10
181.022627828       6.16772499255e-10
181.522690336       9.17773857206e-10
182.022752844       1.36034629213e-09
182.522815352       2.00847478918e-09
183.02287786       2.95383617746e-09
183.522940368       4.32722561023e-09
184.023002875       6.31445373018e-09
184.523065383       9.1783612013e-09
185.023127891       1.32891626586e-08
185.523190399       1.91660758543e-08
186.023252907       2.75341643945e-08
186.523315414       3.94015868169e-08
187.023377922       5.61640783964e-08
187.52344043       7.97455897677e-08
188.023502938       1.12786683046e-07
188.523565446       1.58895679294e-07
189.023627953       2.22981824332e-07
189.523690461       3.11695084674e-07
190.023752969       4.34003823873e-07
190.523815477       6.01949795513e-07
191.023877985       8.31629908025e-07
191.523940493       1.14446638394e-06
192.024003       1.56884159392e-06
192.524065508       2.14219135467e-06
193.024128016       2.9136712085e-06
193.524190524       3.94753451297e-06
194.024253032       5.32738939553e-06
194.524315539       7.16153404852e-06
195.024378047       9.589606644e-06
195.524440555       1.27908273932e-05
196.024503063       1.6994155839e-05
196.524565571       2.24907359906e-05
197.024628079       2.96490547251e-05
197.524690586       3.89332939525e-05
198.024753094       5.09254128904e-05
198.524815602       6.63515514158e-05
199.02487811       8.61133962686e-05
199.524940618       0.00011132519562
200.025003125       0.000143357140262
200.525065633       0.000183885846755
201.025128141       0.000234952673899
201.525190649       0.000299030572892
202.025253157       0.000379100106835
202.525315664       0.000478735169891
203.025378172       0.000602198783221
203.52544068       0.000754549136708
204.025503188       0.000941755775855
204.525565696       0.00117082549657
205.025628204       0.00144993710245
205.525690711       0.00178858369773
206.025753219       0.00219772063458
206.525815727       0.0026899166098
207.025878235       0.003279504721
207.525940743       0.00398272955789
208.02600325       0.00481788563818
208.526065758       0.00580544172156
209.026128266       0.00696814477742
209.526190774       0.0083310966762
210.026253282       0.00992179605745
210.526315789       0.011770137343
211.026378297       0.0139083585563
211.526440805       0.0163709295239
212.026503313       0.0191943722238
212.526565821       0.0224170055412
213.026628329       0.0260786075486
213.526690836       0.0302199896595
214.026753344       0.0348824786426
214.526815852       0.0401073045322
215.02687836       0.0459348949151
215.526940868       0.0524040788906
216.027003375       0.0595512071449
216.527065883       0.0674091979713
217.027128391       0.0760065226304
217.527190899       0.0853661470585
218.027253407       0.0955044504745
218.527315914       0.106430144764
219.027378422       0.118143221482
219.52744093       0.130633955763
220.027503438       0.143881998182
220.527565946       0.15785558659
221.027628454       0.172510909913
221.527690961       0.187791654906
222.027753469       0.203628764672
222.527815977       0.219940434472
223.027878485       0.236632365897
223.527940993       0.253598294984
224.0280035       0.270720803369
224.528066008       0.287872414277
225.028128516       0.304916967263
225.528191024       0.32171125735
226.028253532       0.338106915861
226.52831604       0.353952502069
227.028378547       0.369095767187
227.528441055       0.383386045346
228.028503563       0.396676720545
228.528566071       0.408827714149
229.028628579       0.419707934803
229.528691086       0.42919763158
230.028753594       0.437190592054
230.528816102       0.443596129741
231.02887861       0.44834080995
231.528941118       0.451369869481
232.029003625       0.452648293537
232.529066133       0.452161522534
233.029128641       0.449915771822
233.529191149       0.445937958426
234.029253657       0.440275240353
234.529316165       0.432994185422
235.029378672       0.424179597705
235.52944118       0.413933039997
236.029503688       0.402371100146
236.529566196       0.389623457165
237.029628704       0.37583080974
237.529691211       0.361142734792
238.029753719       0.34571554723
238.529816227       0.329710233777
239.029878735       0.313290534002
239.529941243       0.296621240435
240.03000375       0.279866787133
240.530066258       0.263190192449
241.030128766       0.246752417275
241.530191274       0.230712194875
242.030253782       0.215226382783
242.53031629       0.200450881288
243.030378797       0.186542156857
243.530441305       0.173659402466
244.030503813       0.161967360287
244.530566321       0.15163982528
245.030628829       0.142863840914
245.530691336       0.135844590159
246.030753844       0.130810975778
246.530816352       0.128021873448
247.03087886       0.127773028968
247.530941368       0.130404556411
248.031003875       0.136308977171
248.531066383       0.145939720177
249.031128891       0.159819980937
249.531191399       0.178551811385
250.031253907       0.202825283977
250.531316415       0.233427542324
251.031378922       0.27125151743
251.53144143       0.317304054154
252.031503938       0.372713157814
252.531566446       0.438734037267
253.031628954       0.51675358986
253.531691461       0.608292947167
254.031753969       0.71500768037
254.531816477       0.838685252563
255.031878985       0.981239304405
255.531941493       1.14470037137
256.032004001       1.33120265746
256.532066508       1.54296653327
257.032129016       1.78227648699
257.532191524       2.05145433624
258.032254032       2.35282760679
258.53231654       2.68869310036
259.032379047       3.06127580692
