#  x                 y             frequency           intensity
0.0       1.51294321745e-08       48.03       1.01601
0.500062507813       2.19764114016e-08       228.93       20.25265
1.00012501563       3.17975777072e-08       236.89       0.75106
1.50018752344       4.5828370036e-08       247.17       17.95964
2.00025003125       6.57927285589e-08       304.94       8.93240
2.50031253907       9.40858900304e-08       363.58       5.30217
3.00037504688       1.34021418518e-07       530.05       9.55604
3.50043755469       1.90163444804e-07       586.20       67.18988
4.00050006251       2.68771351237e-07       610.03       53.79212
4.50056257032       3.78392070103e-07       773.42       53.98682
5.00062507813       5.30645140033e-07       788.83       15.03474
5.50068758595       7.41258128346e-07       845.70       138.58104
6.00075009376       1.03142548822e-06       916.48       17.51213
6.50081260158       1.42958296007e-06       1023.76       35.41021
7.00087510939       1.97371289963e-06       1078.55       19.66647
7.5009376172       2.71432414004e-06       1098.12       119.29952
8.00100012502       3.7182839477e-06       1185.78       86.31610
8.50106263283       5.07372012665e-06       1246.70       28.52183
9.00112514064       6.89625919158e-06       1342.81       5.99937
9.50118764846       9.33692257143e-06       1349.17       36.18548
10.0012501563       1.25920677546e-05       1401.19       3.97797
10.5013126641       1.69158357412e-05       1416.06       18.69749
11.0013751719       2.26356505063e-05       1490.49       2.42836
11.5014376797       3.01714104698e-05       1500.17       12.31071
12.0015001875       4.00591158542e-05       1651.91       37.54137
12.5015626953       5.2979788372e-05       1819.42       308.38059
13.0016252032       6.97946592986e-05       3029.02       16.64425
13.501687711       9.15877261673e-05       3072.17       3.83202
14.0017502188       0.00011971690355       3098.27       22.36422
14.5018127266       0.000155875114952       3104.72       26.67864
15.0018752344       0.000202162784681       3487.31       1.17572
15.5019377422       0.000261173283125       3567.03       3.26536
16.00200025       0.000336092947011       3727.66       65.54932
16.5020627578       0.00043081732728
17.0021252657       0.000550085298744
17.5021877735       0.000699632584012
18.0022502813       0.00088636608429
18.5023127891       0.00111856015563
19.0023752969       0.00140607560508
19.5024378047       0.0017606016911
20.0025003125       0.00219592078211
20.5025628204       0.00272819454405
21.0026253282       0.00337626958342
21.502687836       0.00416199936303
22.0027503438       0.00511057793503
22.5028128516       0.00625087961117
23.0028753594       0.00761579713057
23.5029378672       0.00924256922221
24.003000375       0.0111730867311
24.5030628829       0.0134541647384
25.0031253907       0.016137766419
25.5031878985       0.0192811628248
26.0032504063       0.0229470114415
26.5033129141       0.0272033353413
27.0033754219       0.0321233841429
27.5034379297       0.0377853578993
28.0035004376       0.0442719755687
28.5035629454       0.0516698709766
29.0036254532       0.0600688012343
29.503687961       0.0695606555068
30.0037504688       0.0802382558581
30.5038129766       0.0921939466547
31.0038754844       0.105517974647
31.5039379922       0.120296668312
32.0040005001       0.136610432191
32.5040630079       0.154531579676
33.0041255157       0.174122035698
33.5041880235       0.195430948913
34.0042505313       0.218492260832
34.5043130391       0.243322286733
35.0043755469       0.269917369642
35.5044380548       0.298251673907
36.0045005626       0.328275188592
36.5045630704       0.359912012674
37.0046255782       0.393058993659
37.504688086       0.427584788467
38.0047505938       0.463329410175
38.5048131016       0.500104316315
39.0048756095       0.537693084066
39.5049381173       0.575852704877
40.0050006251       0.614315516189
40.5050631329       0.652791771288
41.0051256407       0.69097283037
41.5051881485       0.728534937304
42.0052506563       0.765143527787
42.5053131641       0.80045799644
43.005375672       0.834136833473
43.5054381798       0.86584302654
44.0055006876       0.895249611028
44.5055631954       0.922045242736
45.0056257032       0.945939661258
45.505688211       0.966668910657
46.0057507188       0.984000186522
46.5058132267       0.997736185117
47.0058757345       1.0077188411
47.5059382423       1.01383235483
48.0060007501       1.01600542825
48.5060632579       1.01421264891
49.0061257657       1.00847498463
49.5061882735       0.9988593753
50.0062507813       0.98547743295
50.5063132892       0.968483285405
51.006375797       0.948070621702
51.5064383048       0.924469018539
52.0065008126       0.897939645082
52.5065633204       0.868770458461
53.0066258282       0.837271013339
53.506688336       0.803767016053
54.0067508439       0.768594756651
54.5068133517       0.732095550871
55.0068758595       0.694610318792
55.5069383673       0.656474417979
56.0070008751       0.618012836775
56.5070633829       0.579535838675
57.0071258907       0.541335131904
57.5071883985       0.503680620296
58.0072509064       0.466817772788
58.5073134142       0.430965630218
59.007375922       0.396315450057
59.5074384298       0.363029972963
60.0075009376       0.331243279919
60.5075634454       0.301061195794
61.0076259532       0.272562184463
61.5076884611       0.245798672591
62.0077509689       0.220798733589
62.5078134767       0.197568060313
63.0078759845       0.176092154434
63.5079384923       0.156338662015
64.0080010001       0.138259788346
64.5080635079       0.121794730162
65.0081260158       0.10687206978
65.5081885236       0.0934120829345
66.0082510314       0.0813289199777
66.5083135392       0.0705326281892
67.008376047       0.0609309909922
67.5084385548       0.0524311676215
68.0085010626       0.0449411239998
68.5085635704       0.0383708521185
69.0086260783       0.0326333809361
69.5086885861       0.027645586652
70.0087510939       0.0233288141332
70.5088136017       0.0196093242865
71.0088761095       0.0164185843064
71.5089386173       0.0136934190564
72.0090011251       0.0113760424403
72.509063633       0.0094139875846
73.0091261408       0.00775995408911
73.5091886486       0.00637158960992
74.0092511564       0.00521122172757
74.5093136642       0.00424555451217
75.009376172       0.00344534252094
75.5094386798       0.00278505322636
76.0095011876       0.00224252714168
76.5095636955       0.00179864323912
77.0096262033       0.00143699568506
77.5096887111       0.00114358647797
78.0097512189       0.000906537287205
78.5098137267       0.000715822665193
79.0098762345       0.000563025845984
79.5099387423       0.000441117544467
80.0100012502       0.000344257526178
80.510063758       0.000267618214583
81.0101262658       0.000207229227154
81.5101887736       0.000159841467694
82.0102512814       0.000122809234129
82.5103137892       9.39887124629e-05
83.010376297       7.16512036844e-05
83.5104388049       5.44094572711e-05
84.0105013127       4.11555500193e-05
84.5105638205       3.1008841374e-05
85.0106263283       2.3272646971e-05
85.5106888361       1.73983930106e-05
86.0107513439       1.29561391899e-05
86.5108138517       9.61048236762e-06
87.0108763595       7.10097331205e-06
87.5109388674       5.22629220326e-06
88.0110013752       3.83153332951e-06
88.511063883       2.79804465229e-06
89.0111263908       2.03535321238e-06
89.5111888986       1.47478273942e-06
90.0112514064       1.06443566634e-06
90.5113139142       7.65268616222e-07
91.0113764221       5.48039045509e-07
91.5114389299       3.90941893677e-07
92.0115014377       2.77789634485e-07
92.5115639455       1.96617863816e-07
93.0116264533       1.38622275425e-07
93.5116889611       9.73522932497e-08
94.0117514689       6.81024070704e-08
94.5118139767       4.7454986175e-08
95.0118764846       3.29385406048e-08
95.5119389924       2.27735097914e-08
96.0120015002       1.56840672559e-08
96.512064008       1.07594615239e-08
97.0121265158       7.35233845018e-09
97.5121890236       5.00453300263e-09
98.0122515314       3.39316311504e-09
98.5123140393       2.29165390989e-09
99.0123765471       1.54168780133e-09
99.5124390549       1.03311092659e-09
100.012501563       6.89605293642e-10
100.512564071       4.58518994526e-10
101.012626578       3.03680698121e-10
101.512689086       2.00345761917e-10
102.012751594       1.31657693843e-10
102.512814102       8.61817761342e-11
103.01287661       5.61937157074e-11
103.512939117       3.64975046567e-11
104.013001625       2.36124857214e-11
104.513064133       1.52168008546e-11
105.013126641       9.76805550154e-12
105.513189149       6.24591390018e-12
106.013251656       3.97820336851e-12
106.513314164       2.52395194215e-12
107.013376672       1.5950646672e-12
107.51343918       1.00410382506e-12
108.013501688       6.29625140863e-13
108.513564196       3.93268003626e-13
109.013626703       2.44679891394e-13
109.513689211       1.51639050903e-13
110.013751719       9.36110138818e-14
110.513814227       5.75633358119e-14
111.013876735       3.52588441263e-14
111.513939242       2.15126197757e-14
112.01400175       1.30743962994e-14
112.514064258       7.91503976656e-15
113.014126766       4.77295863506e-15
113.514189274       2.8669845524e-15
114.014251781       1.71540293294e-15
114.514314289       1.02237461258e-15
115.014376797       6.06955816917e-16
115.514439305       3.58927895253e-16
116.014501813       2.11427005865e-16
116.514564321       1.24055727477e-16
117.014626828       7.25063917351e-17
117.514689336       4.22122867192e-17
118.014751844       2.44796147384e-17
118.514814352       1.41407808191e-17
119.01487686       8.13664402125e-18
119.514939367       4.66358991195e-18
120.015001875       2.6625544952e-18
120.515064383       1.5141878935e-18
121.015126891       8.5775675453e-19
121.515189399       4.84006993387e-19
122.015251906       2.72045934359e-19
122.515314414       1.52312643604e-19
123.015376922       8.49440150755e-20
123.51543943       4.71881256476e-20
124.015501938       2.61117381636e-20
124.515564446       1.43926893e-20
125.015626953       7.90225848101e-21
125.515689461       4.32178965157e-21
126.015751969       2.35439394535e-21
126.515814477       1.27760838143e-21
127.015876985       6.90588727674e-22
127.515939492       3.71829918247e-22
128.016002       1.9942164302e-22
128.516064508       1.06537711097e-22
129.016127016       5.669405842e-23
129.516189524       3.00521013514e-23
130.016252032       1.58677465848e-23
130.516314539       8.34562335851e-24
131.016377047       4.37225438792e-24
131.516439555       2.28168239055e-24
132.016502063       1.18606401491e-24
132.516564571       6.14135805737e-25
133.016627078       3.16755959617e-25
133.516689586       1.62739241418e-25
134.016752094       8.3287408163e-26
134.516814602       4.24655878449e-26
135.01687711       2.15812100562e-26
135.516939617       1.09535797175e-26
136.017002125       5.597162898e-27
136.517064633       2.97090447344e-27
137.017127141       1.81785620533e-27
137.517189649       1.58612178742e-27
138.017252157       2.17489870807e-27
138.517314664       3.89354411525e-27
139.017377172       7.61844211494e-27
139.51743968       1.5224308093e-26
140.017502188       3.04944257734e-26
140.517564696       6.09353974782e-26
141.017627203       1.21334290383e-25
141.517689711       2.40679947259e-25
142.017752219       4.75563971408e-25
142.517814727       9.36016328736e-25
143.017877235       1.83510781736e-24
143.517939742       3.58379366301e-24
144.01800225       6.9715212674e-24
144.518064758       1.35087522892e-23
145.018127266       2.60739024032e-23
145.518189774       5.01302589164e-23
146.018252282       9.60056901797e-23
146.518314789       1.83145863727e-22
147.018377297       3.48016928513e-22
147.518439805       6.5872893304e-22
148.018502313       1.24198463506e-21
148.518564821       2.33253850454e-21
149.018627328       4.36359599884e-21
149.518689836       8.13136325571e-21
150.018752344       1.50933382837e-20
150.518814852       2.79068208211e-20
151.01887736       5.13970907558e-20
151.518939867       9.4290909707e-20
152.019002375       1.72307519251e-19
152.519064883       3.1364744173e-19
153.019127391       5.68698895898e-19
153.519189899       1.0271317088e-18
154.019252407       1.84787676339e-18
154.519314914       3.31148649685e-18
155.019377422       5.91120592993e-18
155.51943993       1.05107161265e-17
156.019502438       1.86162259525e-17
156.519564946       3.28438525384e-17
157.019627453       5.77191149725e-17
157.519689961       1.01038839855e-16
158.019752469       1.76181440618e-16
158.519814977       3.06009621257e-16
159.019877485       5.29435580879e-16
159.519939992       9.12418931333e-16
160.0200025       1.56631306405e-15
160.520065008       2.67834163809e-15
161.020127516       4.56201276788e-15
161.520190024       7.74016361303e-15
162.020252532       1.30811795636e-14
162.520315039       2.20214948245e-14
163.020377547       3.69274915062e-14
163.520440055       6.16816441694e-14
164.020502563       1.02627842843e-13
164.520565071       1.70089531197e-13
165.020627578       2.8079740725e-13
165.520690086       4.61755130024e-13
166.020752594       7.56368601462e-13
166.520815102       1.23412282079e-12
167.02087761       2.00579434904e-12
167.520940118       3.24726367145e-12
168.021002625       5.2366293524e-12
168.521065133       8.41180603708e-12
169.021127641       1.34595269997e-11
169.521190149       2.14522811974e-11
170.021252657       3.40580909298e-11
170.521315164       5.38604848026e-11
171.021377672       8.48444337198e-11
171.52144018       1.33131122526e-10
172.021502688       2.0808413789e-10
172.521565196       3.23967543028e-10
173.021627703       5.02420297181e-10
173.521690211       7.76132731717e-10
174.021752719       1.19428499021e-09
174.521815227       1.83055635357e-09
175.021877735       2.7948685649e-09
175.521940243       4.25052754101e-09
176.02200275       6.43913369877e-09
176.522065258       9.71661995681e-09
177.022127766       1.46051546471e-08
177.522190274       2.18675574412e-08
178.022252782       3.26135120258e-08
178.522315289       4.84504753811e-08
179.022377797       7.16971184599e-08
179.522440305       1.05683831602e-07
180.022502813       1.55173870942e-07
180.522565321       2.26950862726e-07
181.022627828       3.3063459114e-07
181.522690336       4.79808513045e-07
182.022752844       6.93570845195e-07
182.522815352       9.98658341064e-07
183.02287786       1.43234049614e-06
183.522940368       2.04634496811e-06
184.023002875       2.91215625189e-06
184.523065383       4.12813371301e-06
185.023127891       5.82902751078e-06
185.523190399       8.19863836842e-06
186.023252907       1.14865774043e-05
186.523315414       1.60303444739e-05
187.023377922       2.22842682234e-05
187.52344043       3.0857250289e-05
188.023502938       4.2561743174e-05
188.523565446       5.84769809528e-05
189.023627953       8.003018983e-05
189.523690461       0.00010910034813
190.023752969       0.000148150059047
190.523815477       0.000200392260311
191.023877985       0.000269999837014
191.523940493       0.000362367738239
192.024003       0.000484438931367
192.524065508       0.000645107459505
193.024128016       0.000855713988185
193.524190524       0.00113065151599
194.024253032       0.00148810134414
194.524315539       0.00195092189873
195.024378047       0.00254771550018
195.524440555       0.00331410057954
196.024503063       0.00429421902073
196.524565571       0.00554251010763
197.024628079       0.00712578378278
197.524690586       0.00912562636238
198.024753094       0.011641171246
198.524815602       0.0147922652304
199.02487811       0.018723057481
199.524940618       0.0236060327188
200.025003125       0.0296465024187
200.525065633       0.0370875574895
201.025128141       0.0462154727256
201.525190649       0.0573655370759
202.025253157       0.0709282642957
202.525315664       0.0873559158066
203.025378172       0.107169241648
203.52544068       0.130964316522
204.025503188       0.159419316531
204.525565696       0.193301048918
205.025628204       0.233471012811
205.525690711       0.280890734805
206.025753219       0.336626090395
206.525815727       0.401850292605
207.025878235       0.477845204204
207.525940743       0.566000611768
208.02600325       0.667811090552
208.526065758       0.78487009073
209.026128266       0.918860890187
209.526190774       1.07154408846
210.026253282       1.24474136232
210.526315789       1.44031526695
211.026378297       1.66014494847
211.526440805       1.90609773359
212.026503313       2.1799966797
212.526565821       2.48358430193
213.026628329       2.81848284065
213.526690836       3.18615158889
214.026753344       3.58784196132
214.526815852       4.02455114787
215.02687836       4.49697535079
215.526940868       5.00546374715
216.027003375       5.5499744416
216.527065883       6.13003377094
217.027128391       6.7447003845
217.527190899       7.39253554674
218.027253407       8.0715810857
218.527315914       8.77934633771
219.027378422       9.51280531371
219.52744093       10.2684051337
220.027503438       11.042086545
220.527565946       11.8293170606
221.027628454       12.6251369318
221.527690961       13.4242178102
222.027753469       14.2209335735
222.527815977       15.0094423908
223.027878485       15.7837787082
223.527940993       16.5379534516
224.0280035       17.2660603887
224.528066008       17.9623862816
225.028128516       18.6215222044
225.528191024       19.238473215
226.028253532       19.8087634617
226.52831604       20.3285337863
227.028378547       20.794628955
227.528441055       21.2046718168
228.028503563       21.5571219455
228.528566071       21.851316667
229.028628579       22.0874927995
229.528691086       22.2667879242
230.028753594       22.3912205503
230.528816102       22.4636491201
231.02887861       22.4877103965
231.528941118       22.467738379
232.029003625       22.4086654673
232.529066133       22.3159081329
233.029128641       22.1952398371
233.529191149       22.0526543419
234.029253657       21.8942228763
234.529316165       21.7259488386
235.029378672       21.5536238284
235.52944118       21.3826887996
236.029503688       21.2181040147
236.529566196       21.0642312562
237.029628704       20.9247314311
237.529691211       20.8024802804
238.029753719       20.6995044118
238.529816227       20.6169393102
239.029878735       20.5550103661
239.529941243       20.5130373264
240.03000375       20.4894619183
240.530066258       20.48189776
241.030128766       20.4872010599
241.530191274       20.5015600446
242.030253782       20.5206005591
242.53031629       20.5395048608
243.030378797       20.5531403063
243.530441305       20.556194399
244.030503813       20.5433125459
244.530566321       20.5092348608
245.030628829       20.4489284443
245.530691336       20.3577117692
246.030753844       20.2313680947
246.530816352       20.066245207
247.03087886       19.8593392359
247.530941368       19.6083607966
248.031003875       19.3117822519
248.531066383       18.9688654479
249.031128891       18.5796698442
249.531191399       18.1450415049
250.031253907       17.6665839315
250.531316415       17.1466121866
251.031378922       16.5880921596
251.53144143       15.994567158
252.031503938       15.3700742596
252.531566446       14.7190530259
253.031628954       14.0462492583
253.531691461       13.35661647
254.031753969       12.6552176632
254.531816477       11.9471298404
255.031878985       11.2373534531
255.531941493       10.5307287175
256.032004001       9.83186040756
256.532066508       9.14505239129
257.032129016       8.47425281897
257.532191524       7.82301051127
258.032254032       7.1944427468
258.53231654       6.59121432142
259.032379047       6.01552745574
259.532441555       5.46912186849
260.032504063       4.95328411928
260.532566571       4.46886515588
261.032629079       4.01630488139
261.532691586       3.59566248384
