#  x                 y             frequency           intensity
0.0       3.25384529314e-12       58.29       1.09805
0.500062507813       5.12090615424e-12       208.67       38.11613
1.00012501563       8.02786104883e-12       230.69       5.36165
1.50018752344       1.25359135833e-11       270.68       0.21781
2.00025003125       1.94991304815e-11       333.75       1.04630
2.50031253907       3.02118704821e-11       417.63       12.00126
3.00037504688       4.66276036291e-11       494.59       8.54382
3.50043755469       7.16822602312e-11       563.12       35.07531
4.00050006251       1.09769932828e-10       621.64       62.42658
4.50056257032       1.67439615932e-10       734.35       54.92090
5.00062507813       2.54411156897e-10       801.60       44.23201
5.50068758595       3.85050063673e-10       830.47       118.68121
6.00075009376       5.80498843982e-10       939.64       4.22427
6.50081260158       8.71743327465e-10       1027.42       1.39386
7.00087510939       1.304004282e-09       1106.68       9.75284
7.5009376172       1.94299872729e-09       1134.86       223.81180
8.00100012502       2.88382649609e-09       1184.34       61.61626
8.50106263283       4.26352537728e-09       1235.83       8.29416
9.00112514064       6.27872829574e-09       1326.02       24.26509
9.50118764846       9.21038194826e-09       1346.73       4.23033
10.0012501563       1.34581915098e-08       1405.19       7.12776
10.5013126641       1.95883962432e-08       1419.41       4.87813
11.0013751719       2.83997273118e-08       1494.87       7.46795
11.5014376797       4.10140420704e-08       1499.78       10.00816
12.0015001875       5.9000282086e-08       1636.93       67.01282
12.5015626953       8.45432067095e-08       1807.90       289.98870
13.0016252032       1.20671985344e-07       2918.20       44.61522
13.501687711       1.71568404442e-07       3044.79       19.24145
14.0017502188       2.42980420797e-07       3107.55       21.28174
14.5018127266       3.42774384958e-07       3128.85       16.32468
15.0018752344       4.81668841882e-07       3504.50       4.94515
15.5019377422       6.74204830855e-07       3589.64       9.95994
16.00200025       9.40022566176e-07       3726.92       67.44174
16.5020627578       1.30553287306e-06
17.0021252657       1.80609444588e-06
17.5021877735       2.48883562957e-06
18.0022502813       3.41629280819e-06
18.5023127891       4.67107747919e-06
19.0023752969       6.3618315894e-06
19.5024378047       8.63078659812e-06
20.0025003125       1.16633068537e-05
20.5025628204       1.56998729525e-05
21.0026253282       2.10510463372e-05
21.502687836       2.81160527475e-05
22.0027503438       3.74057291264e-05
22.5028128516       4.95706955522e-05
23.0028753594       6.54357393648e-05
23.5029378672       8.60415307119e-05
24.003000375       0.000112694924041
24.5030628829       0.00014702923422
25.0031253907       0.000191076003176
25.5031878985       0.000247349885947
26.0032504063       0.000318948374772
26.5033129141       0.000409668135742
27.0033754219       0.000524139741999
27.5034379297       0.000667982536532
28.0035004376       0.000847981230616
28.5035629454       0.00107228562423
29.0036254532       0.00135063450501
29.503687961       0.00169460432511
30.0037504688       0.00211788265434
30.5038129766       0.00263656564833
31.0038754844       0.0032694778412
31.5039379922       0.00403851146536
32.0040005001       0.00496898121666
32.5040630079       0.00608998892618
33.0041255157       0.00743479098689
33.5041880235       0.00904115963897
34.0042505313       0.0109517273802
34.5043130391       0.0132143018865
35.0043755469       0.0158821369663
35.5044380548       0.0190141433066
36.0045005626       0.0226750211884
36.5045630704       0.0269352960494
37.0046255782       0.031871236868
37.504688086       0.0375646369375
38.0047505938       0.0441024368153
38.5048131016       0.0515761701703
39.0048756095       0.0600812150169
39.5049381173       0.0697158354929
40.0050006251       0.0805800029721
40.5050631329       0.092773989929
41.0051256407       0.106396735574
41.5051881485       0.121543988822
42.0052506563       0.138306241507
42.5053131641       0.156766472827
43.005375672       0.176997734488
43.5054381798       0.199060614821
44.0055006876       0.223000628789
44.5055631954       0.24884558912
45.0056257032       0.276603021338
45.505688211       0.306257691843
46.0057507188       0.33776932311
46.5058132267       0.371070573082
47.0058757345       0.406065356678
47.5059382423       0.442627585706
48.0060007501       0.480600399187
48.5060632579       0.519795949052
49.0061257657       0.559995796326
49.5061882735       0.600951960446
50.0062507813       0.642388649381
50.5063132892       0.68400468116
51.006375797       0.725476588739
51.5064383048       0.766462380236
52.0065008126       0.80660590636
52.5065633204       0.845541766735
53.0066258282       0.882900667781
53.506688336       0.918315127438
54.0067508439       0.951425407078
54.5068133517       0.981885539122
55.0068758595       1.00936931068
55.5069383673       1.03357605946
56.0070008751       1.05423613844
56.5070633829       1.07111591085
57.0071258907       1.08402214597
57.5071883985       1.0928057005
58.0072509064       1.09736438712
58.5073134142       1.0976449533
59.007375922       1.09364411676
59.5074384298       1.08540862941
60.0075009376       1.07303436794
60.5075634454       1.05666447596
61.0076259532       1.03648660794
61.5076884611       1.01272934907
62.0077509689       0.985657906698
62.5078134767       0.955569186651
63.0078759845       0.922786382314
63.5079384923       0.887653213955
64.0080010001       0.85052796144
64.5080635079       0.811777434298
65.0081260158       0.771771019593
65.5081885236       0.73087494038
66.0082510314       0.689446846137
66.5083135392       0.647830841991
67.008376047       0.606353046469
67.5084385548       0.56531774863
68.0085010626       0.525004215421
68.5085635704       0.485664179851
69.0086260783       0.447520020614
69.5086885861       0.410763624916
70.0087510939       0.375555908946
70.5088136017       0.34202695519
71.0088761095       0.310276712947
71.5089386173       0.28037619821
72.0090011251       0.252369121685
72.509063633       0.226273869049
73.0091261408       0.202085755609
73.5091886486       0.179779478027
74.0092511564       0.159311688554
74.5093136642       0.140623621876
75.009376172       0.123643710879
75.5094386798       0.10829013509
76.0095011876       0.0944732537274
76.5095636955       0.0820978839717
77.0096262033       0.0710653938172
77.5096887111       0.0612755874556
78.0097512189       0.0526283692426
78.5098137267       0.0450251797742
79.0098762345       0.0383702042466
79.5099387423       0.032571359005
80.0100012502       0.0275410669423
80.510063758       0.0231968361696
81.0101262658       0.0194616591746
81.5101887736       0.0162642515629
82.0102512814       0.0135391505165
82.5103137892       0.0112266934119
83.010376297       0.00927289670602
83.5104388049       0.00762925435681
84.0105013127       0.00625247378716
84.5105638205       0.00510416585536
85.0106263283       0.00415050354591
85.5106888361       0.00336186224176
86.0107513439       0.00271245255679
86.5108138517       0.00217995486062
87.0108763595       0.0017451628691
87.5109388674       0.00139164204165
88.0110013752       0.00110540704864
88.511063883       0.000874621263785
89.0111263908       0.000689320107152
89.5111888986       0.000541159111401
90.0112514064       0.00042318680325
90.5113139142       0.000329641870802
91.0113764221       0.000255773612428
91.5114389299       0.000197684317371
92.0115014377       0.000152191995151
92.5115639455       0.000116711732656
93.0116264533       8.91538978534e-05
93.5116889611       6.78374114222e-05
94.0117514689       5.14163582022e-05
94.5118139767       3.88182962836e-05
95.0118764846       2.91927320773e-05
95.5119389924       2.18683555043e-05
96.0120015002       1.63177630461e-05
96.512064008       1.21285318293e-05
97.0121265158       8.97964060644e-06
97.5121890236       6.6223600794e-06
98.0122515314       4.86485320284e-06
98.5123140393       3.55983445179e-06
99.0123765471       2.59473480076e-06
99.5124390549       1.88390615265e-06
100.012501563       1.36247538629e-06
100.512564071       9.81524578043e-07
101.012626578       7.04331003728e-07
101.512689086       5.0344907315e-07
102.012751594       3.58457274555e-07
102.512814102       2.54227404816e-07
103.01287661       1.79601699901e-07
103.512939117       1.26386775713e-07
104.013001625       8.8592292342e-08
104.513064133       6.18576414572e-08
105.013126641       4.30223260819e-08
105.513189149       2.98055768359e-08
106.013251656       2.05685789444e-08
106.513314164       1.41388522945e-08
107.013376672       9.6811542573e-09
107.51343918       6.60302947209e-09
108.013501688       4.48603279638e-09
108.513564196       3.03588115168e-09
109.013626703       2.04649270267e-09
109.513689211       1.37416457302e-09
110.013751719       9.1911617364e-10
110.513814227       6.12357698226e-10
111.013876735       4.06390052068e-10
111.513939242       2.68648282163e-10
112.01400175       1.76900141512e-10
112.514064258       1.16031366181e-10
113.014126766       7.58098686521e-11
113.514189274       4.9337733591e-11
114.014251781       3.19842197016e-11
114.514314289       2.06535845729e-11
115.014376797       1.32848981047e-11
115.514439305       8.51185331998e-12
116.014501813       5.43241759768e-12
116.514564321       3.45354625191e-12
117.014626828       2.18695838477e-12
117.514689336       1.37949100911e-12
118.014751844       8.66762957069e-13
118.514814352       5.42481489493e-13
119.01487686       3.38199232785e-13
119.514939367       2.10021340094e-13
120.015001875       1.29914416029e-13
120.515064383       8.00487175766e-14
121.015126891       4.91308779478e-14
121.515189399       3.00370850346e-14
122.015251906       1.82921248193e-14
122.515314414       1.10961837875e-14
123.015376922       6.70480636197e-15
123.51543943       4.03554274288e-15
124.015501938       2.41947298852e-15
124.515564446       1.44491640668e-15
125.015626953       8.59543373343e-16
125.515689461       5.09326223655e-16
126.015751969       3.00626710663e-16
126.515814477       1.7675136203e-16
127.015876985       1.03514910389e-16
127.515939492       6.03881982323e-17
128.016002       3.50932405598e-17
128.516064508       2.03170155072e-17
129.016127016       1.17219500564e-17
129.516189524       6.74668854419e-18
130.016252032       3.88659682957e-18
130.516314539       2.26451170809e-18
131.016377047       1.37682178432e-18
131.516439555       9.45860983955e-19
132.016502063       8.37987762672e-19
132.516564571       1.02468257599e-18
133.016627078       1.57611556574e-18
133.516689586       2.6861200734e-18
134.016752094       4.7369623205e-18
134.516814602       8.4244031166e-18
135.01687711       1.49817672084e-17
135.516939617       2.65712433787e-17
136.017002125       4.69596889309e-17
136.517064633       8.26782968479e-17
137.017127141       1.45002785801e-16
137.517189649       2.53319743545e-16
138.017252157       4.40825100557e-16
138.517314664       7.64129836133e-16
139.017377172       1.31938412013e-15
139.51743968       2.26922993592e-15
140.017502188       3.88766542357e-15
140.517564696       6.63441106956e-15
141.017627203       1.12776597123e-14
141.517689711       1.90958374348e-14
142.017752219       3.22078358786e-14
142.517814727       5.41112408733e-14
143.017877235       9.05558590793e-14
143.517939742       1.50955426552e-13
144.01800225       2.50659412468e-13
144.518064758       4.1459343233e-13
145.018127266       6.83067986633e-13
145.518189774       1.12100760366e-12
146.018252282       1.83255196243e-12
146.518314789       2.98405724782e-12
147.018377297       4.8401755804e-12
147.518439805       7.82020602561e-12
148.018502313       1.25857292973e-11
148.518564821       2.01763076279e-11
149.018627328       3.22187070864e-11
149.518689836       5.12480846928e-11
150.018752344       8.11989255492e-11
150.518814852       1.28152192002e-10
151.01887736       2.01467458809e-10
151.518939867       3.15490939235e-10
152.019002375       4.92121100432e-10
152.519064883       7.64645601921e-10
153.019127391       1.18345436637e-09
153.519189899       1.82450875099e-09
154.019252407       2.80184107742e-09
154.519314914       4.28592096882e-09
155.019377422       6.53052252681e-09
155.51943993       9.91185221752e-09
156.019502438       1.49852784615e-08
156.519564946       2.2567213098e-08
157.019627453       3.38527656821e-08
157.519689961       5.05840378165e-08
158.019752469       7.52897655495e-08
158.519814977       1.11625009543e-07
159.019877485       1.64850468706e-07
159.519939992       2.42505714258e-07
160.0200025       3.55350458169e-07
160.520065008       5.18674498787e-07
161.020127516       7.54112301225e-07
161.520190024       1.09214491319e-06
162.020252532       1.57553342979e-06
162.520315039       2.26400869616e-06
163.020377547       3.24064659269e-06
163.520440055       4.62049352485e-06
164.020502563       6.56218051716e-06
164.520565071       9.28348613721e-06
165.020627578       1.3082089812e-05
165.520690086       1.83631115521e-05
166.020752594       2.56754776452e-05
166.520815102       3.57597030485e-05
167.02087761       4.96103611794e-05
167.520940118       6.85573444543e-05
168.021002625       9.43710306561e-05
168.521065133       0.000129397689676
169.021127641       0.000176732922661
169.521190149       0.000240442652168
170.021252657       0.000325843208146
170.521315164       0.000439854408748
171.021377672       0.000591442240988
171.52144018       0.000792170820562
172.021502688       0.0010568867586
172.521565196       0.00140456287633
173.021627703       0.00185933235778
173.521690211       0.00245174886188
174.021752719       0.00322031274332
174.521815227       0.00421330823431
175.021877735       0.00549100105199
175.521940243       0.00712825020251
176.02200275       0.00921759148533
176.522065258       0.01187285303
177.022127766       0.0152333647362
177.522190274       0.0194688232864
178.022252782       0.0247848719553
178.522315289       0.0314294491981
179.022377797       0.0396999513735
179.522440305       0.0499512423428
180.022502813       0.0626045254863
180.522565321       0.0781570713349
181.022627828       0.0971927660499
181.522690336       0.12039341203
182.022752844       0.148550671795
182.522815352       0.18257850001
183.02287786       0.223525856384
183.522940368       0.272589434794
184.023002875       0.331126082439
184.523065383       0.400664518387
185.023127891       0.482915895597
185.523190399       0.579782686485
186.023252907       0.693365312346
186.523315414       0.825965884419
187.023377922       0.980088382771
187.52344043       1.15843457224
188.023502938       1.36389494627
188.523565446       1.59953400364
189.023627953       1.86856920338
189.523690461       2.17434301316
190.023752969       2.52028756796
190.523815477       2.90988159231
191.023877985       3.34659940889
191.523940493       3.83385206107
192.024003       4.37492081186
192.524065508       4.97288354549
193.024128016       5.63053488242
193.524190524       6.35030111833
194.024253032       7.1341514024
194.524315539       7.98350686982
195.024378047       8.89914972581
195.524440555       9.88113453096
196.024503063       10.9287041475
196.524565571       12.0402129596
197.024628079       13.2130600661
197.524690586       14.4436351524
198.024753094       15.727279664
198.524815602       17.0582657336
199.02487811       18.4297950388
199.524940618       19.8340194015
200.025003125       21.2620844818
200.525065633       22.7041973761
201.025128141       24.1497183205
201.525190649       25.5872760327
202.025253157       27.0049055323
202.525315664       28.3902065698
203.025378172       29.7305200989
203.52544068       31.0131195801
204.025503188       32.225413308
204.525565696       33.3551534651
205.025628204       34.3906472142
205.525690711       35.3209648905
206.025753219       36.1361402458
206.525815727       36.8273577386
207.025878235       37.3871220736
207.525940743       37.8094055457
208.02600325       38.0897692528
208.526065758       38.2254548751
209.026128266       38.2154444677
209.526190774       38.0604865484
210.026253282       37.7630876559
210.526315789       37.3274694753
211.026378297       36.7594925506
211.526440805       36.0665484825
212.026503313       35.257423337
212.526565821       34.3421357128
213.026628329       33.3317535343
213.526690836       32.238194115
214.026753344       31.0740123731
214.526815852       29.8521822623
215.02687836       28.5858765096
215.526940868       27.2882496295
216.027003375       25.9722289229
216.527065883       24.6503177852
217.027128391       23.3344151514
217.527190899       22.0356543323
218.027253407       20.7642638557
218.527315914       19.5294522476
219.027378422       18.3393179996
219.52744093       17.2007852848
220.027503438       16.1195653323
220.527565946       15.1001427608
221.027628454       14.1457856318
221.527690961       13.258577506
222.027753469       12.4394693992
222.527815977       11.6883492252
223.027878485       11.0041260933
223.527940993       10.3848266944
224.0280035       9.82770094754
224.528066008       9.32933409954
225.028128516       8.88576255008
225.528191024       8.49259081056
226.028253532       8.14510719121
226.52831604       7.83839603052
227.028378547       7.56744453081
227.528441055       7.32724253133
228.028503563       7.11287382986
228.528566071       6.91959794638
229.028628579       6.74292150378
229.528691086       6.57865867329
230.028753594       6.42298039366
230.528816102       6.27245231883
231.02887861       6.12406167494
231.528941118       5.97523341355
232.029003625       5.82383623049
232.529066133       5.66817917759
233.029128641       5.50699972768
233.529191149       5.3394442595
234.029253657       5.16504200935
234.529316165       4.98367359015
235.029378672       4.79553520586
235.52944118       4.6010996922
236.029503688       4.4010754924
236.529566196       4.19636463327
237.029628704       3.98802070226
237.529691211       3.77720774409
238.029753719       3.56516089814
238.529816227       3.3531494885
239.029878735       3.14244316033
239.529941243       2.934281533
240.03000375       2.72984771499
240.530066258       2.53024590178
241.030128766       2.33648315903
241.530191274       2.14945538146
242.030253782       1.96993731645
242.53031629       1.79857645189
243.030378797       1.63589049186
243.530441305       1.48226808241
244.030503813       1.33797240398
244.530566321       1.20314721536
245.030628829       1.07782491814
245.530691336       0.961936207592
246.030753844       0.855320885224
246.530816352       0.757739428647
247.03087886       0.668884943425
247.530941368       0.58839515773
248.031003875       0.515864161915
248.531066383       0.450853639624
249.031128891       0.39290338302
249.531191399       0.341540930552
250.031253907       0.296290209933
250.531316415       0.256679110644
251.031378922       0.222245948212
251.53144143       0.192544816256
252.031503938       0.167149851311
252.531566446       0.145658459618
253.031628954       0.127693574352
253.531691461       0.112905026411
254.031753969       0.100970122094
254.531816477       0.0915935273253
255.031878985       0.0845065608756
255.531941493       0.079465998862
256.032004001       0.0762524902241
256.532066508       0.0746686783031
257.032129016       0.0745371176227
257.532191524       0.0756980678733
258.032254032       0.0780072393002
258.53231654       0.0813335554893
259.032379047       0.0855569911718
259.532441555       0.0905665343071
260.032504063       0.0962583134852
260.532566571       0.102533923702
261.032629079       0.109298975853
261.532691586       0.116461887923
262.032754094       0.123932928768
262.532816602       0.131623518728
263.03287911       0.139445784962
