#  x                 y             frequency           intensity
0.0       1.92585342123e-13       61.98       2.08265
0.500062507813       3.1195690795e-13       212.52       44.43570
1.00012501563       5.03348869649e-13       241.61       1.86592
1.50018752344       8.08996609088e-13       250.01       3.48505
2.00025003125       1.29517191325e-12       312.95       0.35637
2.50031253907       2.06543364602e-12       373.83       2.10018
3.00037504688       3.28093925701e-12       503.67       23.21102
3.50043755469       5.19144485903e-12       602.27       70.07043
4.00050006251       8.18241333335e-12       636.53       25.52878
4.50056257032       1.28462892228e-11       763.64       32.12481
5.00062507813       2.00898683145e-11       795.09       45.40660
5.50068758595       3.12953344744e-11       845.94       154.87991
6.00075009376       4.85607312558e-11       919.88       9.59993
6.50081260158       7.50574751989e-11       1035.60       6.23354
7.00087510939       1.15559538256e-10       1082.96       14.87999
7.5009376172       1.77223274765e-10       1140.10       269.80676
8.00100012502       2.70731525044e-10       1173.61       3.46613
8.50106263283       4.11964710247e-10       1236.52       23.17717
9.00112514064       6.24430795644e-10       1317.54       10.78422
9.50118764846       9.42782960795e-10       1353.54       13.59341
10.0012501563       1.41788905179e-09       1399.71       2.64802
10.5013126641       2.12410453641e-09       1434.19       18.55301
11.0013751719       3.16965968999e-09       1493.06       6.97013
11.5014376797       4.71142736469e-09       1503.07       11.50145
12.0015001875       6.97582338197e-09       1641.13       67.56309
12.5015626953       1.02882513439e-08       1813.63       270.52742
13.0016252032       1.51143949986e-08       3030.13       17.05261
13.501687711       2.21178588958e-08       3041.09       15.22796
14.0017502188       3.22402582045e-08       3099.56       21.91622
14.5018127266       4.68119844948e-08       3105.03       24.66206
15.0018752344       6.77046826383e-08       3490.69       5.29779
15.5019377422       9.75401622961e-08       3574.10       7.59169
16.00200025       1.3997528294e-07       3721.80       63.46136
16.5020627578       2.00088600765e-07
17.0021252657       2.84902626705e-07
17.5021877735       4.0408587748e-07
18.0022502813       5.70892062183e-07
18.5023127891       8.03410400564e-07
19.0023752969       1.1262220024e-06
19.5024378047       1.57258337004e-06
20.0025003125       2.18729048014e-06
20.5025628204       3.03041676379e-06
21.0026253282       4.18216698988e-06
21.502687836       5.74914805254e-06
22.0027503438       7.8724285695e-06
22.5028128516       1.07378436909e-05
23.0028753594       1.45891012941e-05
23.5029378672       1.97443624392e-05
24.003000375       2.66171040615e-05
24.5030628829       3.57422265639e-05
25.0031253907       4.78085439728e-05
25.5031878985       6.36989896881e-05
26.0032504063       8.45400857535e-05
26.5033129141       0.000111762455987
27.0033754219       0.000147174409736
27.5034379297       0.000193050878156
28.0035004376       0.000252240241354
28.5035629454       0.000328291832442
29.0036254532       0.000425607130932
29.503687961       0.000549617847055
30.0037504688       0.000706994231495
30.5038129766       0.000905886999393
31.0038754844       0.00115620620758
31.5039379922       0.00146994024148
32.0040005001       0.00186151772183
32.5040630079       0.00234821459899
33.0041255157       0.00295060793082
33.5041880235       0.00369307680715
34.0042505313       0.00460434956005
34.5043130391       0.00571809476065
35.0043755469       0.00707355153259
35.5044380548       0.00871619240307
36.0045005626       0.0106984092708
36.5045630704       0.0130802101182
37.0046255782       0.0159299108746
37.504688086       0.0193248034074
38.0047505938       0.0233517770716
38.5048131016       0.0281078676849
39.0048756095       0.0337007043611
39.5049381173       0.0402488214802
40.0050006251       0.0478818003881
40.5050631329       0.0567402033894
41.0051256407       0.0669752614488
41.5051881485       0.0787482769524
42.0052506563       0.0922297041173
42.5053131641       0.107597872373
43.005375672       0.125037322434
43.5054381798       0.144736730966
44.0055006876       0.166886407821
44.5055631954       0.19167535973
45.0056257032       0.219287926105
45.505688211       0.249900005992
46.0057507188       0.283674910026
46.5058132267       0.320758887126
47.0058757345       0.361276392159
47.5059382423       0.40532517739
48.0060007501       0.452971306667
48.5060632579       0.504244206155
49.0061257657       0.559131878511
49.5061882735       0.617576417832
50.0062507813       0.679469969855
50.5063132892       0.744651285105
51.006375797       0.812903011467
51.5064383048       0.883949866412
52.0065008126       0.957457817796
52.5065633204       1.03303438546
53.0066258282       1.11023015405
53.506688336       1.18854156079
54.0067508439       1.26741499111
54.5068133517       1.34625218038
55.0068758595       1.42441688341
55.5069383673       1.50124273465
56.0070008751       1.5760421841
56.5070633829       1.64811635649
57.0071258907       1.71676564726
57.5071883985       1.78130083839
58.0072509064       1.8410544926
58.5073134142       1.89539236583
59.007375922       1.94372456749
59.5074384298       1.98551619495
60.0075009376       2.02029717508
60.5075634454       2.04767105998
61.0076259532       2.06732254672
61.5076884611       2.07902352203
62.0077509689       2.0826374697
62.5078134767       2.07812212172
63.0078759845       2.06553028107
63.5079384923       2.04500879403
64.0080010001       2.01679569957
64.5080635079       1.98121563361
65.0081260158       1.93867361189
65.5081885236       1.88964735808
66.0082510314       1.8346783802
66.5083135392       1.77436202824
67.008376047       1.70933678795
67.5084385548       1.64027307907
68.0085010626       1.56786183165
68.5085635704       1.49280311025
69.0086260783       1.4157950442
69.5086885861       1.33752330326
70.0087510939       1.25865133232
70.5088136017       1.17981152799
71.0088761095       1.10159750559
71.5089386173       1.02455756729
72.0090011251       0.949189444073
72.509063633       0.875936345901
73.0091261408       0.805184317638
73.5091886486       0.737260864343
74.0092511564       0.672434778967
74.5093136642       0.610917079385
75.009376172       0.552862940411
75.5094386798       0.49837449038
76.0095011876       0.447504331092
76.5095636955       0.400259634297
77.0096262033       0.356606667167
77.5096887111       0.316475602863
78.0097512189       0.279765479898
78.5098137267       0.246349184742
79.0098762345       0.2160783454
79.5099387423       0.188788038789
80.0100012502       0.164301230903
80.510063758       0.142432885391
81.0101262658       0.12299369262
81.5101887736       0.105793387057
82.0102512814       0.0906436355134
82.5103137892       0.0773604919644
83.010376297       0.0657664262694
83.5104388049       0.0556919437936
84.0105013127       0.046976820811
84.5105638205       0.0394709865422
85.0106263283       0.0330350868868
85.5106888361       0.0275407674707
86.0107513439       0.0228707147079
86.5108138517       0.0189184933866
87.0108763595       0.0155882180276
87.5109388674       0.0127940931539
88.0110013752       0.0104598548631
88.511063883       0.00851814289849
89.0111263908       0.00690982896029
89.5111888986       0.00558332342959
90.0112514064       0.00449387914045
90.5113139142       0.00360290742363
91.0113764221       0.00287731845318
91.5114389299       0.00228889500742
92.0115014377       0.00181370615035
92.5115639455       0.00143156506812
93.0116264533       0.00112553336173
93.5116889611       0.000881472494645
94.0117514689       0.000687641803946
94.5118139767       0.000534341480896
95.0118764846       0.00041359818237
95.5119389924       0.000318890415406
96.0120015002       0.000244910510735
96.512064008       0.000187359834756
97.0121265158       0.000142773852518
97.5121890236       0.000108373718506
98.0122515314       8.19412122642e-05
98.5123140393       6.1714030017e-05
99.0123765471       4.6298672945e-05
99.5124390549       3.45984220138e-05
100.012501563       2.57541459945e-05
100.512564071       1.90959438009e-05
101.012626578       1.41038673754e-05
101.512689086       1.03762019565e-05
102.012751594       7.60399337073e-06
102.512814102       5.55070511946e-06
103.01287661       4.03606076014e-06
103.512939117       2.92327954784e-06
104.013001625       2.10904629844e-06
104.513064133       1.51567117778e-06
105.013126641       1.08499311809e-06
105.513189149       7.736634641e-07
106.013251656       5.49515953589e-07
106.513314164       3.88786911353e-07
107.013376672       2.73997171275e-07
107.51343918       1.92346210991e-07
108.013501688       1.34500625786e-07
108.513564196       9.36845742166e-08
109.013626703       6.50002433629e-08
109.513689211       4.49226110533e-08
110.013751719       3.0925598432e-08
110.513814227       2.12067612277e-08
111.013876735       1.44855067839e-08
111.513939242       9.85589695243e-09
112.01400175       6.67977335903e-09
112.514064258       4.50952099888e-09
113.014126766       3.03250979843e-09
113.514189274       2.03131429597e-09
114.014251781       1.35536151607e-09
114.514314289       9.00816408583e-10
115.014376797       5.9637652418e-10
115.514439305       3.93285471836e-10
116.014501813       2.58344000712e-10
116.514564321       1.69040967952e-10
117.014626828       1.10176424411e-10
117.514689336       7.1530043648e-11
118.014751844       4.62584864825e-11
118.514814352       2.97987098278e-11
119.01487686       1.91208245373e-11
119.514939367       1.22213416263e-11
120.015001875       7.78097939439e-12
120.515064383       4.93460914441e-12
121.015126891       3.11726961369e-12
121.515189399       1.9615486601e-12
122.015251906       1.22949543073e-12
122.515314414       7.67640474123e-13
123.015376922       4.77410453188e-13
123.51543943       2.95752957218e-13
124.015501938       1.82502736462e-13
124.515564446       1.12179313658e-13
125.015626953       6.86845867198e-14
125.515689461       4.18898604189e-14
126.015751969       2.54484684219e-14
126.515814477       1.5399885789e-14
127.015876985       9.28274591002e-15
127.515939492       5.57363518958e-15
128.016002       3.33352510836e-15
128.516064508       1.98596705624e-15
129.016127016       1.17853769993e-15
129.516189524       6.966555285e-16
130.016252032       4.10200315374e-16
130.516314539       2.40590010342e-16
131.016377047       1.40560794815e-16
131.516439555       8.1801278085e-17
132.016502063       4.74219112305e-17
132.516564571       2.73883488705e-17
133.016627078       1.57639654013e-17
133.516689586       9.05204717922e-18
134.016752094       5.20376488372e-18
134.516814602       3.02788512568e-18
135.01687711       1.84252812065e-18
135.516939617       1.27331456771e-18
136.017002125       1.14174580039e-18
136.517064633       1.41257246769e-18
137.017127141       2.18566245839e-18
137.517189649       3.73094471745e-18
138.017252157       6.57799068373e-18
138.517314664       1.16883823631e-17
139.017377172       2.07639400402e-17
139.51743968       3.67841920133e-17
140.017502188       6.49333871014e-17
140.517564696       1.1418919004e-16
141.017627203       2.0003202635e-16
141.517689711       3.49045191952e-16
142.017752219       6.06692012989e-16
142.517814727       1.05040899807e-15
143.017877235       1.81155629026e-15
143.517939742       3.11206304736e-15
144.01800225       5.32534888823e-15
144.518064758       9.07717819924e-15
145.018127266       1.54119208976e-14
145.518189774       2.60654840586e-14
146.018252282       4.39114654427e-14
146.518314789       7.36873910437e-14
147.018377297       1.23171872182e-13
147.518439805       2.05084584886e-13
148.018502313       3.40139920865e-13
148.518564821       5.61933996944e-13
149.018627328       9.24732501403e-13
149.518689836       1.51582843376e-12
150.018752344       2.47506773955e-12
150.518814852       4.02556870117e-12
151.01887736       6.5218455409e-12
151.518939867       1.0524873587e-11
152.019002375       1.69186762697e-11
152.519064883       2.70906225714e-11
153.019127391       4.32090485997e-11
153.519189899       6.86488924717e-11
154.019252407       1.08641431453e-10
154.519314914       1.71261812663e-10
155.019377422       2.68923470019e-10
155.51943993       4.2062975357e-10
156.019502438       6.55351632622e-10
156.519564946       1.01707246e-09
157.019627453       1.57228950974e-09
157.519689961       2.4211196466e-09
158.019752469       3.71366820935e-09
158.519814977       5.67404872536e-09
159.019877485       8.63547308575e-09
159.519939992       1.3091286335e-08
160.0200025       1.97688598222e-08
160.520065008       2.97361017995e-08
161.020127516       4.45542934369e-08
161.520190024       6.64964100675e-08
162.020252532       9.88575747145e-08
162.520315039       1.46394518824e-07
163.020377547       2.15944821797e-07
163.520440055       3.17295479895e-07
164.020502563       4.64395592378e-07
164.520565071       6.7704168074e-07
165.020627578       9.83208978536e-07
165.520690086       1.42226125304e-06
166.020752594       2.04934952022e-06
166.520815102       2.94141161616e-06
167.02087761       4.20531647846e-06
167.520940118       5.98886715539e-06
168.021002625       8.49559474154e-06
168.521065133       1.20045534088e-05
169.021127641       1.68966785466e-05
169.521190149       2.36897124133e-05
170.021252657       3.30842541374e-05
170.521315164       4.60241759013e-05
171.021377672       6.37754903581e-05
171.52144018       8.80287844927e-05
172.021502688       0.000121031583886
172.521565196       0.000165758512717
173.021627703       0.000226128904579
173.521690211       0.00030728363346
174.021752719       0.000415935408201
174.521815227       0.000560809639052
175.021877735       0.000753196267329
175.521940243       0.00100763666442
176.02200275       0.0013427738566
176.522065258       0.00178239890033
177.022127766       0.00235673117654
177.522190274       0.00310397561997
178.022252782       0.00407220533817
178.522315289       0.00532162354819
179.022377797       0.00692726405835
179.522440305       0.00898219437716
180.022502813       0.0116012896091
180.522565321       0.0149256481929
181.022627828       0.0191277217787
181.522690336       0.0244172305836
182.022752844       0.0310479318015
182.522815352       0.0393253014197
183.02287786       0.04961517841
183.522940368       0.0623534040211
184.023002875       0.078056467105
184.523065383       0.0973331384422
185.023127891       0.120897042364
185.523190399       0.149580072228
186.023252907       0.184346507343
186.523315414       0.226307632868
187.023377922       0.276736601495
187.52344043       0.337083207219
188.023502938       0.408988168504
188.523565446       0.494296442503
189.023627953       0.595069015968
189.523690461       0.713592544984
190.023752969       0.852386148094
190.523815477       1.01420459948
191.023877985       1.202037125
191.523940493       1.41910097836
192.024003       1.66882897247
192.524065508       1.95485016584
193.024128016       2.28096296115
193.524190524       2.65109996511
194.024253032       3.06928408918
194.524315539       3.53957554089
195.024378047       4.06600956602
195.524440555       4.65252505043
196.024503063       5.30288437539
196.524565571       6.0205852347
197.024628079       6.80876546008
197.524690586       7.67010225291
198.024753094       8.60670757478
198.524815602       9.62002179345
199.02487811       10.7107080003
199.524940618       11.8785496963
200.025003125       13.1223547673
200.525065633       14.4398688288
201.025128141       15.827701089
201.525190649       17.2812658588
202.025253157       18.7947427103
202.525315664       20.3610580466
203.025378172       21.9718904953
203.52544068       23.6177020772
204.025503188       25.2877965383
204.525565696       26.9704055756
205.025628204       28.6528029558
205.525690711       30.3214457407
206.025753219       31.9621410159
206.525815727       33.5602357012
207.025878235       35.1008262284
207.525940743       36.5689841378
208.02600325       37.9499929934
208.526065758       39.2295914864
209.026128266       40.3942171957
209.526190774       41.431245241
210.026253282       42.3292159988
210.526315789       43.0780461712
211.026378297       43.6692178002
211.526440805       44.0959403002
212.026503313       44.3532812268
212.526565821       44.4382622938
213.026628329       44.3499180574
213.526690836       44.0893156916
214.026753344       43.6595353308
214.526815852       43.0656115314
215.02687836       42.3144374561
215.526940868       41.4146343844
216.027003375       40.3763900572
216.527065883       39.2112701523
217.027128391       37.9320078224
217.527190899       36.5522767064
218.027253407       35.0864531133
218.527315914       33.5493731936
219.027378422       31.9560908399
219.52744093       30.3216418141
220.027503438       28.6608191974
220.527565946       26.9879647159
221.027628454       25.3167798447
221.527690961       23.6601598532
222.027753469       22.0300531596
222.527815977       20.4373475476
223.027878485       18.8917839801
223.527940993       17.4018979647
224.0280035       15.9749877009
224.528066008       14.6171075863
225.028128516       13.3330851075
225.528191024       12.1265586887
226.028253532       11.0000337292
226.52831604       9.95495383989
227.028378547       8.9917841691
227.528441055       8.11010369858
228.028503563       7.30870347616
228.528566071       6.5856879161
229.028628579       5.9385765344
229.528691086       5.36440377469
230.028753594       4.85981490619
230.528816102       4.42115632446
231.02887861       4.04455894258
231.528941118       3.72601371301
232.029003625       3.46143865769
232.529066133       3.24673709557
233.029128641       3.07784703744
233.529191149       2.95078196124
234.029253657       2.86166338478
234.529316165       2.80674581582
235.029378672       2.78243478224
235.52944118       2.78529872976
236.029503688       2.8120756238
236.529566196       2.85967511035
237.029628704       2.92517708124
237.529691211       3.00582745767
238.029753719       3.09903195556
238.529816227       3.2023485328
239.029878735       3.31347914428
239.529941243       3.4302613509
240.03000375       3.55066024474
240.530066258       3.67276106831
241.030128766       3.79476282257
241.530191274       3.91497307767
242.030253782       4.03180412349
242.53031629       4.14377052555
243.030378797       4.24948808495
243.530441305       4.34767414077
244.030503813       4.43714909907
244.530566321       4.51683902538
245.030628829       4.58577909723
245.530691336       4.64311768064
246.030753844       4.68812076952
246.530816352       4.72017651043
247.03087886       4.73879952707
247.530941368       4.74363475936
248.031003875       4.73446054175
248.531066383       4.71119066334
249.031128891       4.67387517878
249.531191399       4.62269977361
250.031253907       4.55798352812
250.531316415       4.48017497119
251.031378922       4.3898463664
251.53144143       4.28768622664
252.031503938       4.17449010827
252.531566446       4.05114978998
253.031628954       3.91864099256
253.531691461       3.77800984255
254.031753969       3.63035832331
254.531816477       3.47682898964
255.031878985       3.31858924631
255.531941493       3.15681550498
256.032004001       2.99267753857
256.532066508       2.82732334596
257.032129016       2.6618648246
257.532191524       2.4973645238
258.032254032       2.33482371897
258.53231654       2.17517200786
259.032379047       2.01925858554
259.532441555       1.8678453075
260.032504063       1.72160160096
260.532566571       1.58110123564
261.032629079       1.44682091848
261.532691586       1.31914063299
262.032754094       1.19834560512
262.532816602       1.08462974475
263.03287911       0.978100384948
263.532941618       0.878784121896
264.033004126       0.78663354585
