#  x                 y             frequency           intensity
0.0       9.49456503178e-10       53.58       5.22326
0.500062507813       1.44026468737e-09       222.84       25.91845
1.00012501563       2.17626944686e-09       235.75       16.17630
1.50018752344       3.27556430759e-09       297.16       11.55879
2.00025003125       4.91091829146e-09       343.52       4.09019
2.50031253907       7.33402522763e-09       424.48       13.50371
3.00037504688       1.09100113821e-08       491.87       5.15759
3.50043755469       1.61663181294e-08       500.95       77.77774
4.00050006251       2.38616324027e-08       583.65       10.17705
4.50056257032       3.5082642189e-08       728.70       7.81062
5.00062507813       5.13792251245e-08       802.85       34.76244
5.50068758595       7.49524648225e-08       835.08       129.30912
6.00075009376       1.08914926147e-07       933.42       2.20008
6.50081260158       1.57649281727e-07       1023.87       1.05608
7.00087510939       2.27300140629e-07       1107.89       5.94207
7.5009376172       3.26445379089e-07       1144.74       43.69809
8.00100012502       4.67008149703e-07       1176.93       2.21871
8.50106263283       6.65489957896e-07       1228.61       3.52553
9.00112514064       9.44629853051e-07       1292.65       354.34915
9.50118764846       1.33562622979e-06       1352.30       9.00566
10.0012501563       1.88109758271e-06       1395.10       22.25566
10.5013126641       2.63900871407e-06       1417.88       4.82734
11.0013751719       3.68785159633e-06       1488.30       12.80918
11.5014376797       5.13344792863e-06       1505.99       11.69521
12.0015001875       7.11783635487e-06       1637.19       59.98419
12.5015626953       9.83082465197e-06       1839.15       259.13542
13.0016252032       1.35249296161e-05       2913.47       45.90837
13.501687711       1.85345988353e-05       3019.97       30.66253
14.0017502188       2.53008132122e-05       3087.82       25.88571
14.5018127266       3.44024112535e-05       3118.44       12.86018
15.0018752344       4.65957599254e-05       3501.97       10.22175
15.5019377422       6.28647261128e-05       3588.20       14.33595
16.00200025       8.44832805572e-05       3775.56       49.70830
16.5020627578       0.000113093494671
17.0021252657       0.000150802170373
17.5021877735       0.000200299872455
18.0022502813       0.000265006707554
18.5023127891       0.000349249805677
19.0023752969       0.000458478096987
19.5024378047       0.000599520620828
20.0025003125       0.000780895232016
20.5025628204       0.00101317515089
21.0026253282       0.00130942130053
21.502687836       0.0016856887405
22.0027503438       0.00216161568779
22.5028128516       0.0027611035486
23.0028753594       0.00351309600041
23.5029378672       0.00445246438462
24.003000375       0.00562100541589
24.5030628829       0.00706855540171
25.0031253907       0.00885422271337
25.5031878985       0.0110477370826
26.0032504063       0.013730910352
26.5033129141       0.0169991985369
27.0033754219       0.020963349434
27.5034379297       0.0257511135555
28.0035004376       0.0315089889125
28.5035629454       0.038403962219
29.0036254532       0.0466252005802
29.503687961       0.0563856388682
30.0037504688       0.0679233990379
30.5038129766       0.0815029689263
31.0038754844       0.0974160599913
31.5039379922       0.11598205643
32.0040005001       0.137547962656
32.5040630079       0.162487752755
33.0041255157       0.191201024753
33.5041880235       0.22411086498
34.0042505313       0.261660833836
34.5043130391       0.304310994428
35.0043755469       0.35253292016
35.5044380548       0.406803636578
36.0045005626       0.467598476776
36.5045630704       0.535382858196
37.0046255782       0.610603021508
37.504688086       0.693675808697
38.0047505938       0.784977596895
38.5048131016       0.884832545612
39.0048756095       0.993500356754
39.5049381173       1.11116378755
40.0050006251       1.23791619463
40.5050631329       1.37374942139
41.0051256407       1.51854236831
41.5051881485       1.67205060571
42.0052506563       1.83389739872
42.5053131641       2.00356651318
43.005375672       2.18039715858
43.5054381798       2.3635813981
44.0055006876       2.55216431667
44.5055631954       2.74504718594
45.0056257032       2.94099380051
45.505688211       3.13864008418
46.0057507188       3.3365069802
46.5058132267       3.53301654806
47.0058757345       3.72651109353
47.5059382423       3.91527506237
48.0060007501       4.09755933419
48.5060632579       4.27160746507
49.0061257657       4.43568334963
49.5061882735       4.58809970763
50.0062507813       4.72724675137
50.5063132892       4.8516203585
51.006375797       4.95984906468
51.5064383048       5.05071920056
52.0065008126       5.12319752993
52.5065633204       5.17645079917
53.0066258282       5.2098616808
53.506688336       5.22304068481
54.0067508439       5.21583371632
54.5068133517       5.1883250746
55.0068758595       5.1408358118
55.5069383673       5.0739174961
56.0070008751       4.98834154863
56.5070633829       4.88508444244
57.0071258907       4.76530916055
57.5071883985       4.63034340516
58.0072509064       4.4816551287
58.5073134142       4.32082601632
59.007375922       4.14952358812
59.5074384298       3.96947260589
60.0075009376       3.78242646508
60.5075634454       3.59013922677
61.0076259532       3.3943389008
61.5076884611       3.19670253007
62.0077509689       2.99883355133
62.5078134767       2.80224182262
63.0078759845       2.60832661477
63.5079384923       2.41836276878
64.0080010001       2.23349012408
64.5080635079       2.05470623013
65.0081260158       1.8828622665
65.5081885236       1.71866201814
66.0082510314       1.56266368476
66.5083135392       1.41528424722
67.008376047       1.27680607101
67.5084385548       1.14738539697
68.0085010626       1.02706235293
68.5085635704       0.915772115694
69.0086260783       0.813356859621
69.5086885861       0.719578145632
70.0087510939       0.634129429576
70.5088136017       0.556648401315
71.0088761095       0.486728902861
71.5089386173       0.423932214062
72.0090011251       0.367797535949
72.509063633       0.317851543277
73.0091261408       0.273616917828
73.5091886486       0.234619811471
74.0092511564       0.200396221914
74.5093136642       0.17049729395
75.009376172       0.144493584353
75.5094386798       0.12197834917
76.0095011876       0.102569928165
76.5095636955       0.0859133125271
77.0096262033       0.0716809892377
77.5096887111       0.0595731588568
78.0097512189       0.0493174236594
78.5098137267       0.0406680403569
79.0098762345       0.0334048267523
79.5099387423       0.0273318050618
80.0100012502       0.0222756568133
80.510063758       0.0180840556653
81.0101262658       0.0146239355698
81.5101887736       0.0117797427899
82.0102512814       0.00945171164312
82.5103137892       0.00755419571287
83.010376297       0.00601407879747
83.5104388049       0.00476928316833
84.0105013127       0.00376738684024
84.5105638205       0.00296435653724
85.0106263283       0.00232339885386
85.5106888361       0.00181392872159
86.0107513439       0.00141065163668
86.5108138517       0.00109275411277
87.0108763595       0.000843195413031
87.5109388674       0.000648092706344
88.0110013752       0.000496191300255
88.511063883       0.000378411451066
89.0111263908       0.000287463366696
89.5111888986       0.000217522335801
90.0112514064       0.000163956380275
90.5113139142       0.00012309938924
91.0113764221       9.20633105117e-05
91.5114389299       6.85836177425e-05
92.0115014377       5.08929125247e-05
92.5115639455       3.76181413564e-05
93.0116264533       2.76974939052e-05
93.5116889611       2.03135922117e-05
94.0117514689       1.48400750502e-05
94.5118139767       1.07991252365e-05
95.0118764846       7.82788021024e-06
95.5119389924       5.65200942518e-06
96.0120015002       4.06503881433e-06
96.512064008       2.91225653889e-06
97.0121265158       2.07824945062e-06
97.5121890236       1.47730045865e-06
98.0122515314       1.04602750405e-06
98.5123140393       7.37769145011e-07
99.0123765471       5.18323602534e-07
99.5124390549       3.62730935272e-07
100.012501563       2.52854867853e-07
100.512564071       1.75574384698e-07
101.012626578       1.21437859688e-07
101.512689086       8.36662235156e-08
102.012751594       5.74181693162e-08
102.512814102       3.92510817016e-08
103.01287661       2.67274195437e-08
103.512939117       1.81286533659e-08
104.013001625       1.22483382715e-08
104.513064133       8.24312550432e-09
105.013126641       5.52598580829e-09
105.513189149       3.69003708867e-09
106.013251656       2.45445350895e-09
106.513314164       1.62623012679e-09
107.013376672       1.07327819781e-09
107.51343918       7.05579128082e-10
108.013501688       4.62042852425e-10
108.513564196       3.01385185073e-10
109.013626703       1.95823431763e-10
109.513689211       1.26739073256e-10
110.013751719       8.17070461059e-11
110.513814227       5.24700654533e-11
111.013876735       3.35634669319e-11
111.513939242       2.1385782062e-11
112.01400175       1.35733351133e-11
112.514064258       8.58126116026e-12
113.014126766       5.40404280306e-12
113.514189274       3.38992081789e-12
114.014251781       2.1181828178e-12
114.514314289       1.31837949759e-12
115.014376797       8.17373499966e-13
115.514439305       5.0478190595e-13
116.014501813       3.10520386347e-13
116.514564321       1.9027405319e-13
117.014626828       1.16137409392e-13
117.514689336       7.061026021e-14
118.014751844       4.27628461447e-14
118.514814352       2.57969585746e-14
119.01487686       1.55014927997e-14
119.514939367       9.27858290441e-15
120.015001875       5.53213659921e-15
120.515064383       3.28554372087e-15
121.015126891       1.94367979152e-15
121.515189399       1.1453686739e-15
122.015251906       6.72309108936e-16
122.515314414       3.93093446025e-16
123.015376922       2.28942132349e-16
123.51543943       1.32818556826e-16
124.015501938       7.6752919408e-17
124.515564446       4.41808597561e-17
125.015626953       2.53324115767e-17
125.515689461       1.44684504351e-17
126.015751969       8.23134148697e-18
126.515814477       4.66468509619e-18
127.015876985       2.63315942969e-18
127.515939492       1.48059095687e-18
128.016002       8.29270359727e-19
128.516064508       4.62658245116e-19
129.016127016       2.57115099829e-19
129.516189524       1.42330499038e-19
130.016252032       7.84822553676e-20
130.516314539       4.31070290917e-20
131.016377047       2.35845627787e-20
131.516439555       1.28531833623e-20
132.016502063       6.97745074008e-21
132.516564571       3.77299563659e-21
133.016627078       2.03226434019e-21
133.516689586       1.09039015235e-21
134.016752094       5.82779758436e-22
134.516814602       3.10310542596e-22
135.01687711       1.64679986248e-22
135.516939617       8.72410502342e-23
136.017002125       4.64059387067e-23
136.517064633       2.53124883346e-23
137.017127141       1.51563754996e-23
137.517189649       1.16712080558e-23
138.017252157       1.34123060027e-23
138.517314664       2.11849391547e-23
139.017377172       3.84017465532e-23
139.51743968       7.25212454443e-23
140.017502188       1.38148187384e-22
140.517564696       2.63029316084e-22
141.017627203       4.9929932822e-22
141.517689711       9.4433527413e-22
142.017752219       1.77919119274e-21
142.517814727       3.33910149092e-21
143.017877235       6.24225814646e-21
143.517939742       1.16240501288e-20
144.01800225       2.15613762497e-20
144.518064758       3.98381014199e-20
145.018127266       7.3320245556e-20
145.518189774       1.34416413831e-19
146.018252282       2.45461741952e-19
146.518314789       4.46496884335e-19
147.018377297       8.09014241339e-19
147.518439805       1.46014845703e-18
148.018502313       2.62507051633e-18
148.518564821       4.70097614877e-18
149.018627328       8.38567901314e-18
149.518689836       1.49001806713e-17
150.018752344       2.63722963725e-17
150.518814852       4.64951308489e-17
151.01887736       8.16526180405e-17
151.518939867       1.42835403968e-16
152.019002375       2.48888444841e-16
152.519064883       4.31993004571e-16
153.019127391       7.46881681515e-16
153.519189899       1.28626370445e-15
154.019252407       2.20653761739e-15
154.519314914       3.77047243616e-15
155.019377422       6.41775773026e-15
155.51943993       1.08811295392e-14
156.019502438       1.8376709778e-14
156.519564946       3.09146722567e-14
157.019627453       5.18041617684e-14
157.519689961       8.64704600075e-14
158.019752469       1.43771896721e-13
158.519814977       2.38113133186e-13
159.019877485       3.92822008491e-13
159.519939992       6.45522506715e-13
160.0200025       1.05664738146e-12
160.520065008       1.72286753993e-12
161.020127516       2.79818749738e-12
161.520190024       4.52694117133e-12
162.020252532       7.29517989701e-12
162.520315039       1.17103608426e-11
163.020377547       1.87243894802e-11
163.520440055       2.98227832451e-11
164.020502563       4.73142320647e-11
164.520565071       7.47719208424e-11
165.020627578       1.17703234708e-10
165.520690086       1.84561613548e-10
166.020752594       2.88268692761e-10
166.520815102       4.48494064501e-10
167.02087761       6.95054793349e-10
167.520940118       1.07296241262e-09
168.021002625       1.64988280937e-09
168.521065133       2.52711387113e-09
169.021127641       3.8556681832e-09
169.521190149       5.85973018699e-09
170.021252657       8.87071682731e-09
170.521315164       1.33765138364e-08
171.021377672       2.00923300224e-08
171.52144018       3.00622026086e-08
172.021502688       4.4803756569e-08
172.521565196       6.65137141829e-08
173.021627703       9.83583224821e-08
173.521690211       1.44881913053e-07
174.021752719       2.12579009641e-07
174.521815227       3.10691763153e-07
175.021877735       4.5231631901e-07
175.521940243       6.55930666094e-07
176.02200275       9.47494681661e-07
176.522065258       1.36332311671e-06
177.022127766       1.95399746187e-06
177.522190274       2.78966707991e-06
178.022252782       3.9671987011e-06
178.522315289       5.6197724465e-06
179.022377797       7.92969931335e-06
179.522440305       1.11454582754e-05
180.022502813       1.56042311319e-05
180.522565321       2.17615619953e-05
181.022627828       3.02301996495e-05
181.522690336       4.18307105691e-05
182.022752844       5.76570956045e-05
182.522815352       7.91614232247e-05
183.02287786       0.000108262427116
183.522940368       0.000147484126951
184.023002875       0.000200131839373
184.523065383       0.000270514471731
185.023127891       0.00036422375148
185.523190399       0.000488483052774
186.023252907       0.000652580745577
186.523315414       0.000868405509555
187.023377922       0.00115110381072
187.52344043       0.00151988270351
188.023502938       0.00199898424514
188.523565446       0.00261886102006
189.023627953       0.00341758546858
189.523690461       0.00444252876396
190.023752969       0.00575234771646
190.523815477       0.00741932039619
191.023877985       0.00953207261071
191.523940493       0.0121987377615
192.024003       0.0155505916099
192.524065508       0.0197462007462
193.024128016       0.0249761186938
193.524190524       0.0314681561831
194.024253032       0.0394932418104
194.524315539       0.0493718756603
195.024378047       0.0614811611878
195.524440555       0.0762623794635
196.024503063       0.0942290446158
196.524565571       0.115975349939
197.024628079       0.142184880826
197.524690586       0.173639433772
198.024753094       0.211227740846
198.524815602       0.25595385697
199.02487811       0.30894492448
199.524940618       0.371457986956
200.025003125       0.444885484239
200.525065633       0.530759024735
201.025128141       0.630751001999
201.525190649       0.74667360255
202.025253157       0.880474743569
202.525315664       1.0342304851
203.025378172       1.21013348415
203.52544068       1.41047709965
204.025503188       1.63763482002
204.525565696       1.89403476901
205.025628204       2.182129153
205.525690711       2.50435864139
206.025753219       2.86311182153
206.525815727       3.26068003749
207.025878235       3.69920810364
207.525940743       4.18064157611
208.02600325       4.70667145977
208.526065758       5.27867741997
209.026128266       5.8976707483
209.526190774       6.56423849121
210.026253282       7.2784902817
210.526315789       8.04000950809
211.026378297       8.84781050208
211.526440805       9.70030342402
212.026503313       10.595268461
212.526565821       11.5298408287
213.026628329       12.5005078785
213.526690836       13.5031193635
214.026753344       14.5329116023
214.526815852       15.584545922
215.02687836       16.6521613536
215.526940868       17.7294411196
216.027003375       18.8096920003
216.527065883       19.8859352157
217.027128391       20.9510070261
217.527190899       21.9976668573
218.027253407       23.0187104144
218.527315914       24.0070849754
219.027378422       24.9560038697
219.52744093       25.8590570584
220.027503438       26.7103147496
220.527565946       27.5044211102
221.027628454       28.2366753712
221.527690961       28.9030979695
222.027753469       29.5004798018
222.527815977       30.026413189
223.027878485       30.4793037279
223.527940993       30.8583628288
224.0280035       31.1635813785
224.528066008       31.3956855975
225.028128516       31.5560767554
225.528191024       31.6467569504
226.028253532       31.6702436122
226.52831604       31.6294757457
227.028378547       31.5277151761
227.528441055       31.368446168
228.028503563       31.1552767817
228.528566071       30.8918451832
229.028628579       30.5817338596
229.528691086       30.2283943153
230.028753594       29.8350843562
230.528816102       29.4048195218
231.02887861       28.9403396406
231.528941118       28.4440908608
232.029003625       27.9182229039
232.529066133       27.364600699
233.029128641       26.784829028
233.529191149       26.1802883509
234.029253657       25.5521796149
234.529316165       24.9015755834
235.029378672       24.2294760684
235.52944118       23.5368644075
236.029503688       22.8247625962
236.529566196       22.0942826584
237.029628704       21.3466721018
237.529691211       20.5833516447
238.029753719       19.805943799
238.529816227       19.0162913309
239.029878735       18.2164650772
239.529941243       17.4087610448
240.03000375       16.5956871588
240.530066258       15.7799404135
241.030128766       14.9643755267
241.530191274       14.1519664742
242.030253782       13.3457624917
242.53031629       12.5488402611
243.030378797       11.7642540566
243.530441305       10.9949856111
244.030503813       10.2438953783
244.530566321       9.51367672426
245.030628829       8.80681439353
245.530691336       8.12554836326
246.030753844       7.47184394882
246.530816352       6.84736875574
247.03087886       6.25347680594
247.530941368       5.69119990758
248.031003875       5.16124609805
248.531066383       4.66400477617
249.031128891       4.19955795835
249.531191399       3.76769694829
250.031253907       3.36794360298
250.531316415       2.99957530883
251.031378922       2.66165275038
251.53144143       2.35304955689
252.031503938       2.07248294494
252.531566446       1.8185445348
253.031628954       1.58973059768
253.531691461       1.3844710867
254.031753969       1.20115690944
254.531816477       1.03816501056
255.031878985       0.893880943986
255.531941493       0.766718721178
256.032004001       0.655137822995
256.532066508       0.557657353279
257.032129016       0.472867392184
257.532191524       0.399437674348
258.032254032       0.336123771154
258.53231654       0.281770997498
259.032379047       0.235316292252
259.532441555       0.195788338945
260.032504063       0.162306200291
260.532566571       0.134076738497
261.032629079       0.110391084368
261.532691586       0.0906204034757
262.032754094       0.0742111888189
262.532816602       0.0606802875239
263.03287911       0.0496098457838
