#  x                 y             frequency           rot. str.
0.0      0.104571367613      53.16      4.57
0.500062507813      0.106501696029      199.99      24.76
1.00012501563      0.108485391854      220.90      -14.50
1.50018752344      0.110524439138      244.65      -15.71
2.00025003125      0.112620914546      306.43      0.83
2.50031253907      0.114776992548      381.66      -4.07
3.00037504688      0.116994950959      488.55      27.05
3.50043755469      0.119277176839      500.10      -32.42
4.00050006251      0.121626172782      642.91      31.19
4.50056257032      0.124044563639      743.36      -15.34
5.00062507813      0.126535103686      796.13      -3.70
5.50068758595      0.129100684286      902.64      -10.18
6.00075009376      0.131744342079      922.42      -3.40
6.50081260158      0.134469267743      1021.20      12.83
7.00087510939      0.137278815367      1082.39      -10.21
7.5009376172      0.140176512496      1127.50      36.20
8.00100012502      0.143166070883      1171.68      -12.66
8.50106263283      0.146251398025      1269.14      10.63
9.00112514064      0.149436609539      1285.71      52.91
9.50118764846      0.152726042445      1334.06      -115.93
10.0012501563      0.156124269434      1407.73      -9.58
10.5013126641      0.159636114212      1418.43      7.80
11.0013751719      0.163266667994      1487.91      0.81
11.5014376797      0.167021307266      1500.43      5.34
12.0015001875      0.170905712912      1673.94      11.12
12.5015626953      0.174925890827      1843.26      1.24
13.0016252032      0.179088194158      3006.14      9.90
13.501687711      0.183399347301      3039.12      -3.04
14.0017502188      0.187866471822      3100.73      2.36
14.5018127266      0.192497114479      3123.04      -1.45
15.0018752344      0.197299277528      3480.17      -2.42
15.5019377422      0.202281451531      3548.69      5.36
16.00200025      0.207452650899      3770.30      -0.00
16.5020627578       0.212822452416
17.0021252657       0.218401037048
17.5021877735       0.22419923533
18.0022502813       0.230228576688
18.5023127891       0.236501343071
19.0023752969       0.243030627335
19.5024378047       0.249830396817
20.0025003125       0.25691556265
20.5025628204       0.264302055379
21.0026253282       0.272006907518
21.502687836       0.280048343766
22.0027503438       0.28844587966
22.5028128516       0.297220429554
23.0028753594       0.306394424881
23.5029378672       0.3159919438
24.003000375       0.326038853407
24.5030628829       0.336562965874
25.0031253907       0.347594209974
25.5031878985       0.359164819672
26.0032504063       0.371309541593
26.5033129141       0.384065863413
27.0033754219       0.397474265436
27.5034379297       0.411578497847
28.0035004376       0.426425886403
28.5035629454       0.442067669626
29.0036254532       0.458559370821
29.503687961       0.475961208626
30.0037504688       0.494338550062
30.5038129766       0.513762410455
31.0038754844       0.534310004886
31.5039379922       0.556065356148
32.0040005001       0.579119964445
32.5040630079       0.603573544238
33.0041255157       0.629534833672
33.5041880235       0.657122481867
34.0042505313       0.686466018894
34.5043130391       0.717706912374
35.0043755469       0.750999713179
35.5044380548       0.78651329043
36.0045005626       0.824432152578
36.5045630704       0.864957846407
37.0046255782       0.908310418825
37.504688086       0.954729916501
38.0047505938       1.00447788499
38.5048131016       1.05783881067
39.0048756095       1.11512142403
39.5049381173       1.17665975013
40.0050006251       1.24281374818
40.5050631329       1.31396932561
41.0051256407       1.39053743824
41.5051881485       1.47295189462
42.0052506563       1.56166536578
42.5053131641       1.65714295831
43.005375672       1.75985253964
43.5054381798       1.87025081233
44.0055006876       1.98876393112
44.5055631954       2.11576126658
45.0056257032       2.25152078526
45.505688211       2.39618450951
46.0057507188       2.54970274958
46.5058132267       2.71176641582
47.0058757345       2.88172791449
47.5059382423       3.05851311793
48.0060007501       3.24052985385
48.5060632579       3.42558231201
49.0061257657       3.61080544183
49.5061882735       3.79263802637
50.0062507813       3.96685621347
50.5063132892       4.12868878492
51.006375797       4.27302907185
51.5064383048       4.39474467573
52.0065008126       4.48906563747
52.5065633204       4.55200826667
53.0066258282       4.58077252761
53.506688336       4.57404383954
54.0067508439       4.53214097138
54.5068133517       4.45697982554
55.0068758595       4.35186060127
55.5069383673       4.22112111236
56.0070008751       4.06972100871
56.5070633829       3.90282523991
57.0071258907       3.72544241847
57.5071883985       3.54215185929
58.0072509064       3.35693008577
58.5073134142       3.17306942964
59.007375922       2.9931705285
59.5074384298       2.81918667159
60.0075009376       2.65249910785
60.5075634454       2.49400632968
61.0076259532       2.34421511487
61.5076884611       2.20332556703
62.0077509689       2.07130597288
62.5078134767       1.94795586112
63.0078759845       1.83295730347
63.5079384923       1.72591544561
64.0080010001       1.62638970037
64.5080635079       1.53391715884
65.0081260158       1.44802970777
65.5081885236       1.36826618021
66.0082510314       1.29418066669
66.5083135392       1.22534791384
67.008376047       1.16136655328
67.5084385548       1.10186074417
68.0085010626       1.04648068012
68.5085635704       0.994902303641
69.0086260783       0.946826485686
69.5086885861       0.901977861482
70.0087510939       0.860103462116
70.5088136017       0.820971242406
71.0088761095       0.784368576034
71.5089386173       0.750100766862
72.0090011251       0.717989609115
72.509063633       0.687872017184
73.0091261408       0.659598737225
73.5091886486       0.633033146559
74.0092511564       0.608050142642
74.5093136642       0.584535120391
75.009376172       0.562383034757
75.5094386798       0.541497544195
76.0095011876       0.521790229986
76.5095636955       0.503179886063
77.0096262033       0.485591873868
77.5096887111       0.468957536908
78.0097512189       0.453213669867
78.5098137267       0.438302037401
79.0098762345       0.424168938079
79.5099387423       0.410764809258
80.0100012502       0.39804386901
80.510063758       0.385963791566
81.0101262658       0.374485413027
81.5101887736       0.363572464438
82.0102512814       0.353191329527
82.5103137892       0.34331082474
83.010376297       0.333901999381
83.5104388049       0.324937953916
84.0105013127       0.316393674665
84.5105638205       0.308245883306
85.0106263283       0.300472899767
85.5106888361       0.293054517207
86.0107513439       0.285971887955
86.5108138517       0.279207419345
87.0108763595       0.272744678527
87.5109388674       0.266568305411
88.0110013752       0.260663932981
88.511063883       0.255018114308
89.0111263908       0.249618255631
89.5111888986       0.244452554973
90.0112514064       0.239509945776
90.5113139142       0.234780045107
91.0113764221       0.230253106038
91.5114389299       0.225919973821
92.0115014377       0.221772045526
92.5115639455       0.217801232847
93.0116264533       0.213999927803
93.5116889611       0.210360971078
94.0117514689       0.206877622785
94.5118139767       0.20354353545
95.0118764846       0.200352729024
95.5119389924       0.197299567765
96.0120015002       0.194378738831
96.512064008       0.191585232448
97.0121265158       0.188914323523
97.5121890236       0.186361554594
98.0122515314       0.183922719999
98.5123140393       0.181593851191
99.0123765471       0.179371203078
99.5124390549       0.177251241344
100.012501563       0.175230630649
100.512564071       0.173306223659
101.012626578       0.171475050837
101.512689086       0.169734310937
102.012751594       0.168081362161
102.512814102       0.166513713913
103.01287661       0.165029019128
103.512939117       0.163625067116
104.013001625       0.162299776903
104.513064133       0.161051191018
105.013126641       0.159877469714
105.513189149       0.158776885572
106.013251656       0.157747818487
106.513314164       0.156788750988
107.013376672       0.155898263892
107.51343918       0.155075032249
108.013501688       0.154317821584
108.513564196       0.153625484396
109.013626703       0.152996956912
109.513689211       0.152431256078
110.013751719       0.151927476774
110.513814227       0.151484789232
111.013876735       0.151102436669
111.513939242       0.150779733091
112.01400175       0.150516061288
112.514064258       0.150310871001
113.014126766       0.150163677239
113.514189274       0.150074058766
114.014251781       0.150041656731
114.514314289       0.150066173435
115.014376797       0.150147371246
115.514439305       0.150285071637
116.014501813       0.150479154358
116.514564321       0.150729556728
117.014626828       0.151036273054
117.514689336       0.151399354153
118.014751844       0.15181890701
118.514814352       0.152295094528
119.01487686       0.152828135404
119.514939367       0.153418304105
120.015001875       0.154065930959
120.515064383       0.154771402344
121.015126891       0.155535161001
121.515189399       0.156357706433
122.015251906       0.15723959543
122.515314414       0.158181442689
123.015376922       0.159183921553
123.51543943       0.160247764852
124.015501938       0.161373765864
124.515564446       0.162562779384
125.015626953       0.163815722911
125.515689461       0.165133577957
126.015751969       0.166517391476
126.515814477       0.167968277418
127.015876985       0.169487418416
127.515939492       0.171076067602
128.016002       0.17273555057
128.516064508       0.17446726747
129.016127016       0.176272695267
129.516189524       0.178153390141
130.016252032       0.180110990061
130.516314539       0.182147217521
131.016377047       0.184263882455
131.516439555       0.186462885341
132.016502063       0.188746220493
132.516564571       0.191115979561
133.016627078       0.19357435525
133.516689586       0.196123645253
134.016752094       0.198766256432
134.516814602       0.201504709249
135.01687711       0.204341642452
135.516939617       0.207279818052
136.017002125       0.210322126586
136.517064633       0.213471592698
137.017127141       0.216731381047
137.517189649       0.220104802564
138.017252157       0.223595321085
138.517314664       0.227206560372
139.017377172       0.23094231155
139.51743968       0.234806540999
140.017502188       0.238803398701
140.517564696       0.242937227104
141.017627203       0.247212570504
141.517689711       0.25163418501
142.017752219       0.256207049105
142.517814727       0.260936374853
143.017877235       0.265827619796
143.517939742       0.270886499584
144.01800225       0.276119001391
144.518064758       0.281531398166
145.018127266       0.287130263782
145.518189774       0.29292248914
146.018252282       0.298915299302
146.518314789       0.305116271719
147.018377297       0.311533355637
147.518439805       0.318174892763
148.018502313       0.325049639284
148.518564821       0.332166789339
149.018627328       0.339536000049
149.518689836       0.347167418222
150.018752344       0.355071708865
150.518814852       0.363260085625
151.01887736       0.371744343324
151.518939867       0.38053689274
152.019002375       0.389650797804
152.519064883       0.399099815421
153.019127391       0.408898438099
153.519189899       0.419061939629
154.019252407       0.429606424051
154.519314914       0.440548878172
155.019377422       0.451907227947
155.51943993       0.463700399003
156.019502438       0.475948381697
156.519564946       0.48867230105
157.019627453       0.501894491997
157.519689961       0.515638580397
158.019752469       0.529929570298
158.519814977       0.544793938008
159.019877485       0.560259733566
159.519939992       0.576356690273
160.0200025       0.593116342997
160.520065008       0.610572156048
161.020127516       0.6287596615
161.520190024       0.647716608899
162.020252532       0.667483127445
162.520315039       0.688101901775
163.020377547       0.709618362659
163.520440055       0.732080894023
164.020502563       0.755541057844
164.520565071       0.78005383867
165.020627578       0.805677909681
165.520690086       0.832475922383
166.020752594       0.860514822316
166.520815102       0.889866193352
167.02087761       0.920606633486
167.520940118       0.952818165305
168.021002625       0.986588684699
168.521065133       1.02201245176
169.021127641       1.05919062825
169.521190149       1.09823186649
170.021252657       1.13925295518
170.521315164       1.18237952801
171.021377672       1.22774684195
171.52144018       1.27550063253
172.021502688       1.32579805444
172.521565196       1.37880871671
173.021627703       1.43471582259
173.521690211       1.49371742561
174.021752719       1.55602781423
174.521815227       1.62187903916
175.021877735       1.69152259871
175.521940243       1.76523129899
176.02200275       1.84330130773
176.522065258       1.92605442201
177.022127766       2.01384057208
177.522190274       2.10704058522
178.022252782       2.20606923539
178.522315289       2.31137860585
179.022377797       2.42346179323
179.522440305       2.54285698212
180.022502813       2.6701519192
180.522565321       2.80598881431
181.022627828       2.95106969253
181.522690336       3.10616221589
182.022752844       3.27210598317
182.522815352       3.44981930234
183.02287786       3.6403064085
183.522940368       3.84466506971
184.023002875       4.06409447976
184.523065383       4.29990327733
185.023127891       4.55351744866
185.523190399       4.82648775968
186.023252907       5.12049621425
186.523315414       5.4373608362
187.023377922       5.77903781182
187.52344043       6.14761968883
188.023502938       6.5453278909
188.523565446       6.97449725358
189.023627953       7.43754960166
189.523690461       7.93695255828
190.023752969       8.47515880831
190.523815477       9.05451996525
191.023877985       9.67716809759
191.523940493       10.3448570199
192.024003       11.0587549336
192.524065508       11.8191803662
193.024128016       12.6252752772
193.524190524       13.4746135863
194.024253032       14.3627513364
194.524315539       15.2827373599
195.024378047       16.2246214065
195.524440555       17.1750198835
196.024503063       18.1168252438
196.524565571       19.0291680719
197.024628079       19.887751816
197.524690586       20.6656667795
198.024753094       21.3347409147
198.524815602       21.8673954125
199.02487811       22.2388524906
199.524940618       22.4294190695
200.025003125       22.4264855038
200.525065633       22.2258747578
201.025128141       21.8322738902
201.525190649       21.2586582891
202.025253157       20.524826409
202.525315664       19.6553324164
203.025378172       18.6771867501
203.52544068       17.6176776322
204.025503188       16.5025738286
204.525565696       15.354843375
205.025628204       14.1939055118
205.525690711       13.0353490578
206.025753219       11.8910069525
206.525815727       10.769267592
207.025878235       9.67551694889
207.525940743       8.61262948758
208.02600325       7.58145180203
208.526065758       6.58124567922
209.026128266       5.61007487522
209.526190774       4.66513216653
210.026253282       3.74301104456
210.526315789       2.83993090101
211.026378297       1.95192678498
211.526440805       1.07501565319
212.026503313       0.205351065093
212.526565821       -0.660622184967
213.026628329       -1.52600287217
213.526690836       -2.39324836625
214.026753344       -3.26396295886
214.526815852       -4.13865628974
215.02687836       -5.01647445801
215.526940868       -5.89491492106
216.027003375       -6.76954789731
216.527065883       -7.63378134487
217.027128391       -8.47872199681
217.527190899       -9.29319776397
218.027253407       -10.0640112737
218.527315914       -10.7764831854
219.027378422       -11.4153108946
219.52744093       -11.9657117596
220.027503438       -12.4147475117
220.527565946       -12.7526563348
221.027628454       -12.973976751
221.527690961       -13.0782558542
222.027753469       -13.0702013509
222.527815977       -12.9592473926
223.027878485       -12.7586243715
223.527940993       -12.4841143964
224.0280035       -12.1527115707
224.528066008       -11.7813864782
225.028128516       -11.3860943775
225.528191024       -10.9810923232
226.028253532       -10.5785644579
226.52831604       -10.1885098568
227.028378547       -9.81882595461
227.528441055       -9.47551819262
228.028503563       -9.16297591442
228.528566071       -8.8842690304
229.028628579       -8.64143483568
229.528691086       -8.43573701159
230.028753594       -8.26788831561
230.528816102       -8.13823482851
231.02887861       -8.04690341655
231.528941118       -7.99391594605
232.029003625       -7.9792743638
232.529066133       -8.00302050783
233.029128641       -8.06527377486
233.529191149       -8.16624876424
234.029253657       -8.30625387563
234.529316165       -8.48567063717
235.029378672       -8.70491233515
235.52944118       -8.96435935954
236.029503688       -9.26426765809
236.529566196       -9.60464595176
237.029628704       -9.98509714629
237.529691211       -10.404620051
238.029753719       -10.861369605
238.529816227       -11.3523779759
239.029878735       -11.8732458569
239.529941243       -12.4178236234
240.03000375       -12.97791577
240.530066258       -13.5430581857
241.030128766       -14.1004334846
241.530191274       -14.6349996446
242.030253782       -15.1299043429
242.53031629       -15.5672338533
243.030378797       -15.9290963446
243.530441305       -16.1989676509
244.030503813       -16.3631471369
244.530566321       -16.4121068766
245.030628829       -16.3414969118
245.530691336       -16.1526109439
246.030753844       -15.8522167812
246.530816352       -15.4517862605
247.03087886       -14.9662785779
247.530941368       -14.412702487
248.031003875       -13.8086908748
248.531066383       -13.1712746058
249.031128891       -12.5159662069
249.531191399       -11.8561855523
250.031253907       -11.202998841
250.531316415       -10.5651067093
251.031378922       -9.94900548935
251.53144143       -9.3592505056
252.031503938       -8.79876408804
252.531566446       -8.26914740401
253.031628954       -7.77097037139
253.531691461       -7.30402598304
254.031753969       -6.86754396427
254.531816477       -6.4603641904
255.031878985       -6.08107340686
255.531941493       -5.7281102323
256.032004001       -5.39984378945
256.532066508       -5.09463104971
257.032129016       -4.81085740559
257.532191524       -4.54696429794
258.032254032       -4.30146703751
258.53231654       -4.07296533275
259.032379047       -3.86014849463
259.532441555       -3.66179683902
260.032504063       -3.47678044289
260.532566571       -3.30405612194
261.032629079       -3.14266327187
261.532691586       -2.99171904231
262.032754094       -2.85041318011
262.532816602       -2.71800277969
263.03287911       -2.59380710369
263.532941618       -2.47720258252
264.033004126       -2.36761806148
264.533066633       -2.26453033509
265.033129141       -2.16745998785
265.533191649       -2.07596754629
266.033254157       -1.98964993721
266.533316665       -1.90813724089
267.033379172       -1.83108972378
267.53344168       -1.7581951329
268.033504188       -1.68916623334
268.533566696       -1.62373856993
269.033629204       -1.5616684343
269.533691711       -1.50273101984
270.033754219       -1.4467187474
270.533816727       -1.39343974623
271.033879235       -1.34271647544
271.533941743       -1.29438447265
272.034004251       -1.24829121741
272.534066758       -1.20429509839
273.034129266       -1.1622644739
273.534191774       -1.12207681662
274.034254282       -1.08361793419
274.53431679       -1.04678125796
275.034379297       -1.01146719299
275.534441805       -0.977582523334
276.034504313       -0.945039866604
276.534566821       -0.913757173035
277.034629329       -0.883657264225
