#  x                 y             frequency           rot. str.
0.0      0.143477333334      53.58      10.60
0.500062507813      0.147361448326      222.84      -79.02
1.00012501563      0.151361876135      235.75      16.91
1.50018752344      0.15548300885      297.16      -6.80
2.00025003125      0.159729443333      343.52      4.64
2.50031253907      0.164105992649      424.48      -44.24
3.00037504688      0.168617698225      491.87      14.95
3.50043755469      0.173269842818      500.95      55.46
4.00050006251      0.178067964331      583.65      -26.66
4.50056257032      0.183017870561      728.70      -9.50
5.00062507813      0.188125654927      802.85      -0.43
5.50068758595      0.193397713276      835.08      -12.86
6.00075009376      0.198840761836      933.42      2.84
6.50081260158      0.204461856408      1023.87      4.12
7.00087510939      0.210268412899      1107.89      -0.20
7.5009376172      0.216268229294      1144.74      37.22
8.00100012502      0.222469509198      1176.93      23.27
8.50106263283      0.228880887052      1228.61      -21.61
9.00112514064      0.235511455184      1292.65      20.16
9.50118764846      0.242370792825      1352.30      -22.20
10.0012501563      0.249468997266      1395.10      -48.10
10.5013126641      0.25681671733      1417.88      -0.18
11.0013751719      0.264425189359      1488.30      -6.72
11.5014376797      0.272306275924      1505.99      -0.07
12.0015001875      0.280472507496      1637.19      61.21
12.5015626953      0.288937127333      1839.15      -8.65
13.0016252032      0.297714139871      2913.47      8.41
13.501687711      0.30681836292      3019.97      6.08
14.0017502188      0.316265484005      3087.82      3.62
14.5018127266      0.326072121236      3118.44      -2.93
15.0018752344      0.3362558891      3501.97      -18.21
15.5019377422      0.346835469646      3588.20      12.54
16.00200025      0.357830689546      3775.56      -7.04
16.5020627578       0.369262603584
17.0021252657       0.381153585185
17.5021877735       0.393527424643
18.0022502813       0.406409435793
18.5023127891       0.419826571936
19.0023752969       0.433807551926
19.5024378047       0.448382997413
20.0025003125       0.463585582351
20.5025628204       0.479450195997
21.0026253282       0.496014120758
21.502687836       0.5133172264
22.0027503438       0.531402182283
22.5028128516       0.550314689501
23.0028753594       0.570103734973
23.5029378672       0.59082186979
24.003000375       0.612525514375
24.5030628829       0.635275293289
25.0031253907       0.65913640283
25.5031878985       0.684179014953
26.0032504063       0.710478721378
26.5033129141       0.738117022239
27.0033754219       0.767181864059
27.5034379297       0.797768232379
28.0035004376       0.829978804939
28.5035629454       0.863924671908
29.0036254532       0.899726130358
29.503687961       0.937513560863
30.0037504688       0.977428394854
30.5038129766       1.01962418216
31.0038754844       1.06426776894
31.5039379922       1.1115405969
32.0040005001       1.16164013553
32.5040630079       1.2147814595
33.0041255157       1.27119898388
33.5041880235       1.33114836962
34.0042505313       1.3949086116
34.5043130391       1.46278432007
35.0043755469       1.53510820417
35.5044380548       1.61224376263
36.0045005626       1.69458818104
36.5045630704       1.78257542657
37.0046255782       1.8766795191
37.504688086       1.9774179404
38.0047505938       2.08535511922
38.5048131016       2.20110589736
39.0048756095       2.32533883707
39.5049381173       2.45877917027
40.0050006251       2.60221111
40.5050631329       2.75647913915
41.0051256407       2.92248775354
41.5051881485       3.10119895954
42.0052506563       3.29362660051
42.5053131641       3.50082630615
43.005375672       3.7238795169
43.5054381798       3.96386963353
44.0055006876       4.22184789048
44.5055631954       4.49878608054
45.0056257032       4.79551283062
45.505688211       5.11262985165
46.0057507188       5.45040463896
46.5058132267       5.80863674776
47.0058757345       6.18649637947
47.5059382423       6.58233704878
48.0060007501       6.99348904693
48.5060632579       7.41604764882
49.0061257657       7.84467951721
49.5061882735       8.27248173777
50.0062507813       8.69093832174
50.5063132892       9.09002521198
51.006375797       9.45851182836
51.5064383048       9.78448981596
52.0065008126       10.0561249873
52.5065633204       10.2625789647
53.0066258282       10.3949929641
53.506688336       10.447384686
54.0067508439       10.4172990037
54.5068133517       10.306085202
55.0068758595       10.1187438693
55.5069383673       9.86337505678
56.0070008751       9.55033765957
56.5070633829       9.19127447004
57.0071258907       8.7981589052
57.5071883985       8.38248530734
58.0072509064       7.9546723529
58.5073134142       7.52369685281
59.007375922       7.09693563452
59.5074384298       6.6801708743
60.0075009376       6.27770752594
60.5075634454       5.89255555357
61.0076259532       5.52663929363
61.5076884611       5.18100736219
62.0077509689       4.85602659191
62.5078134767       4.55155140909
63.0078759845       4.26706565003
63.5079384923       4.00179736057
64.0080010001       3.75480910078
64.5080635079       3.52506716444
65.0081260158       3.31149331882
65.5081885236       3.11300246835
66.0082510314       2.92852924812
66.5083135392       2.75704608702
67.008376047       2.59757481831
67.5084385548       2.44919349747
68.0085010626       2.31103972712
68.5085635704       2.18231149053
69.0086260783       2.06226625486
69.5086885861       1.95021891411
70.0087510939       1.8455389937
70.5088136017       1.74764742421
71.0088761095       1.65601310498
71.5089386173       1.57014941291
72.0090011251       1.48961076329
72.509063633       1.41398929321
73.0091261408       1.34291171217
73.5091886486       1.27603634554
74.0092511564       1.21305038276
74.5093136642       1.15366733336
75.009376172       1.09762468693
75.5094386798       1.04468176941
76.0095011876       0.994617785156
76.5095636955       0.947230033063
77.0096262033       0.902332284111
77.5096887111       0.859753307784
78.0097512189       0.819335534998
78.5098137267       0.780933845695
79.0098762345       0.744414469949
79.5099387423       0.709653992155
80.0100012502       0.676538448671
80.510063758       0.64496251002
81.0101262658       0.614828739582
81.5101887736       0.586046921365
82.0102512814       0.558533450165
82.5103137892       0.532210778048
83.010376297       0.507006911662
83.5104388049       0.482854955439
84.0105013127       0.459692696212
84.5105638205       0.437462225245
85.0106263283       0.416109594045
85.5106888361       0.395584500715
86.0107513439       0.375840003907
86.5108138517       0.356832261756
87.0108763595       0.338520293412
87.5109388674       0.320865761057
88.0110013752       0.303832770466
88.511063883       0.287387688404
89.0111263908       0.271498975294
89.5111888986       0.25613703176
90.0112514064       0.24127405777
90.5113139142       0.226883923254
91.0113764221       0.212942049156
91.5114389299       0.199425297994
92.0115014377       0.186311873092
92.5115639455       0.173581225717
93.0116264533       0.161213969433
93.5116889611       0.149191801061
94.0117514689       0.137497427662
94.5118139767       0.126114499046
95.0118764846       0.115027545338
95.5119389924       0.104221919168
96.0120015002       0.0936837421213
96.512064008       0.0833998550821
97.0121265158       0.0733577721597
97.5121890236       0.0635456379087
98.0122515314       0.0539521875768
98.5123140393       0.0445667101395
99.0123765471       0.035379013902
99.5124390549       0.0263793944675
100.012501563       0.0175586048875
100.512564071       0.00890782782607
101.012626578       0.000418649584369
101.512689086       -0.00791696415678
102.012751594       -0.0161066910047
102.512814102       -0.0241578730527
103.01287661       -0.0320775367163
103.512939117       -0.0398724113095
104.013001625       -0.0475489464518
104.513064133       -0.0551133283918
105.013126641       -0.062571495326
105.513189149       -0.0699291517836
106.013251656       -0.0771917821447
106.513314164       -0.084364663354
107.013376672       -0.0914528768844
107.51343918       -0.0984613200051
108.013501688       -0.105394716402
108.513564196       -0.112257626195
109.013626703       -0.119054455393
109.513689211       -0.125789464827
110.013751719       -0.132466778595
110.513814227       -0.139090392054
111.013876735       -0.145664179388
111.513939242       -0.15219190078
112.01400175       -0.158677209216
112.514064258       -0.165123656953
113.014126766       -0.171534701651
113.514189274       -0.177913712224
114.014251781       -0.184263974397
114.514314289       -0.190588696019
115.014376797       -0.196891012114
115.514439305       -0.203173989725
116.014501813       -0.20944063254
116.514564321       -0.215693885312
117.014626828       -0.221936638116
117.514689336       -0.228171730422
118.014751844       -0.234401955009
118.514814352       -0.240630061744
119.01487686       -0.246858761216
119.514939367       -0.253090728242
120.015001875       -0.259328605263
120.515064383       -0.26557500563
121.015126891       -0.271832516789
121.515189399       -0.278103703375
122.015251906       -0.284391110227
122.515314414       -0.290697265319
123.015376922       -0.297024682628
123.51543943       -0.30337586494
124.015501938       -0.309753306593
124.515564446       -0.316159496178
125.015626953       -0.322596919192
125.515689461       -0.329068060652
126.015751969       -0.335575407678
126.515814477       -0.342121452049
127.015876985       -0.348708692734
127.515939492       -0.355339638407
128.016002       -0.362016809954
128.516064508       -0.368742742966
129.016127016       -0.375519990233
129.516189524       -0.382351124239
130.016252032       -0.389238739669
130.516314539       -0.396185455919
131.016377047       -0.403193919628
131.516439555       -0.410266807231
132.016502063       -0.417406827533
132.516564571       -0.42461672432
133.016627078       -0.431899278999
133.516689586       -0.439257313279
134.016752094       -0.4466936919
134.516814602       -0.454211325406
135.01687711       -0.461813172978
135.516939617       -0.469502245317
136.017002125       -0.477281607606
136.517064633       -0.485154382528
137.017127141       -0.493123753369
137.517189649       -0.501192967196
138.017252157       -0.509365338123
138.517314664       -0.517644250676
139.017377172       -0.526033163249
139.51743968       -0.534535611672
140.017502188       -0.543155212883
140.517564696       -0.551895668733
141.017627203       -0.560760769904
141.517689711       -0.569754399971
142.017752219       -0.578880539602
142.517814727       -0.588143270908
143.017877235       -0.597546781957
143.517939742       -0.60709537145
144.01800225       -0.616793453584
144.518064758       -0.626645563095
145.018127266       -0.636656360503
145.518189774       -0.64683063757
146.018252282       -0.657173322976
146.518314789       -0.667689488228
147.018377297       -0.678384353824
147.518439805       -0.689263295668
148.018502313       -0.700331851766
148.518564821       -0.711595729215
149.018627328       -0.723060811491
149.518689836       -0.734733166071
150.018752344       -0.746619052386
150.518814852       -0.758724930148
151.01887736       -0.77105746805
151.518939867       -0.783623552869
152.019002375       -0.796430299001
152.519064883       -0.80948505844
153.019127391       -0.822795431238
153.519189899       -0.836369276465
154.019252407       -0.850214723702
154.519314914       -0.864340185095
155.019377422       -0.878754368009
155.51943993       -0.893466288311
156.019502438       -0.908485284317
156.519564946       -0.923821031448
157.019627453       -0.939483557638
157.519689961       -0.955483259534
158.019752469       -0.971830919533
158.519814977       -0.98853772372
159.019877485       -1.00561528074
159.519939992       -1.02307564171
160.0200025       -1.04093132111
160.520065008       -1.05919531896
161.020127516       -1.07788114402
161.520190024       -1.09700283842
162.020252532       -1.11657500356
162.520315039       -1.13661282751
163.020377547       -1.1571321139
163.520440055       -1.17814931252
164.020502563       -1.1996815516
164.520565071       -1.22174667201
165.020627578       -1.24436326336
165.520690086       -1.26755070238
166.020752594       -1.29132919333
166.520815102       -1.31571981109
167.02087761       -1.34074454656
167.520940118       -1.36642635506
168.021002625       -1.39278920748
168.521065133       -1.41985814473
169.021127641       -1.44765933547
169.521190149       -1.47622013749
170.021252657       -1.50556916298
170.521315164       -1.53573634789
171.021377672       -1.56675302585
171.52144018       -1.59865200673
172.021502688       -1.63146766047
172.521565196       -1.66523600633
173.021627703       -1.69999480809
173.521690211       -1.73578367567
174.021752719       -1.77264417355
174.521815227       -1.81061993664
175.021877735       -1.84975679407
175.521940243       -1.89010290159
176.02200275       -1.93170888327
176.522065258       -1.97462798311
177.022127766       -2.01891622762
177.522190274       -2.06463259989
178.022252782       -2.11183922648
178.522315289       -2.16060157789
179.022377797       -2.21098868387
179.522440305       -2.26307336484
180.022502813       -2.31693248067
180.522565321       -2.37264719846
181.022627828       -2.43030328076
181.522690336       -2.48999139624
182.022752844       -2.55180745456
182.522815352       -2.61585296774
183.02287786       -2.68223544032
183.522940368       -2.7510687909
184.023002875       -2.822473808
184.523065383       -2.89657864326
185.023127891       -2.97351934553
185.523190399       -3.05344043965
186.023252907       -3.13649555415
186.523315414       -3.22284810242
187.023377922       -3.31267202264
187.52344043       -3.40615258202
188.023502938       -3.5034872517
188.523565446       -3.60488665926
189.023627953       -3.71057562646
189.523690461       -3.82079430089
190.023752969       -3.93579939089
190.523815477       -4.05586551424
191.023877985       -4.18128667233
191.523940493       -4.31237786284
192.024003       -4.44947684508
192.524065508       -4.59294607426
193.024128016       -4.74317482231
193.524190524       -4.90058150511
194.024253032       -5.06561623803
194.524315539       -5.23876364437
195.024378047       -5.42054594374
195.524440555       -5.6115263507
196.024503063       -5.81231281709
196.524565571       -6.02356215533
197.024628079       -6.24598458388
197.524690586       -6.48034874045
198.024753094       -6.72748721324
198.524815602       -6.9883026457
199.02487811       -7.26377447547
199.524940618       -7.55496637394
200.025003125       -7.86303445844
200.525065633       -8.18923635496
201.025128141       -8.53494119418
201.525190649       -8.90164062874
202.025253157       -9.29096096255
202.525315664       -9.70467648449
203.025378172       -10.144724097
203.52544068       -10.613219324
204.025503188       -11.1124737685
204.525565696       -11.645014071
205.025628204       -12.2136023814
205.525690711       -12.8212583076
206.025753219       -13.4712822259
206.525815727       -14.1672797297
207.025878235       -14.9131868413
207.525940743       -15.7132953984
208.02600325       -16.5722777416
208.526065758       -17.4952094369
209.026128266       -18.4875882494
209.526190774       -19.5553468901
210.026253282       -20.7048561549
210.526315789       -21.9429138989
211.026378297       -23.2767137852
211.526440805       -24.7137858617
212.026503313       -26.2618986863
212.526565821       -27.9289099367
213.026628329       -29.7225492309
213.526690836       -31.6501134001
214.026753344       -33.7180510364
214.526815852       -35.9314104046
215.02687836       -38.2931238258
215.526940868       -40.8031040602
216.027003375       -43.4571364077
216.527065883       -46.2455673407
217.027128391       -49.1518201102
217.527190899       -52.1508133193
218.027253407       -55.2074215331
218.527315914       -58.2751948684
219.027378422       -61.2956367528
219.52744093       -64.1984043784
220.027503438       -66.902811848
220.527565946       -69.3209420087
221.027628454       -71.3624768921
221.527690961       -72.9410348657
222.027753469       -73.981402663
222.527815977       -74.4266785798
223.027878485       -74.2441401741
223.527940993       -73.4287342071
224.0280035       -72.0034870121
224.528066008       -70.0167536871
225.028128516       -67.5368716756
225.528191024       -64.6452534027
226.028253532       -61.4291180173
226.52831604       -57.9749226736
227.028378547       -54.3632109881
227.528441055       -50.6651918003
228.028503563       -46.9410133525
228.528566071       -43.2394685788
229.028628579       -39.5987630852
229.528691086       -36.0479702394
230.028753594       -32.6088472671
230.528816102       -29.2977563085
231.02887861       -26.1275005274
231.528941118       -23.1089355419
232.029003625       -20.2522489657
232.529066133       -17.5678215362
233.029128641       -15.0666027302
233.529191149       -12.7599640775
234.029253657       -10.6590440998
234.529316165       -8.77367157623
235.029378672       -7.11103797153
235.52944118       -5.67436184085
236.029503688       -4.46181823925
236.529566196       -3.46597217475
237.029628704       -2.67385568858
237.529691211       -2.06768856815
238.029753719       -1.62610629599
238.529816227       -1.32566763254
239.029878735       -1.14239046951
239.529941243       -1.05310371606
240.03000375       -1.03648043952
240.530066258       -1.07370296055
241.030128766       -1.14878061312
241.530191274       -1.24858437485
242.030253782       -1.3626797263
242.53031629       -1.48303661773
243.030378797       -1.60368178533
243.530441305       -1.72034104783
244.030503813       -1.83010234405
244.530566321       -1.93111649831
245.030628829       -2.02234268821
245.530691336       -2.10333903252
246.030753844       -2.17409490051
246.530816352       -2.23489968633
247.03087886       -2.28624221145
247.530941368       -2.32873509618
248.031003875       -2.36305901382
248.531066383       -2.38992247344
249.031128891       -2.41003353003
249.531191399       -2.42408051815
250.031253907       -2.43271951373
250.531316415       -2.43656673847
251.031378922       -2.43619453647
251.53144143       -2.43212988402
252.031503938       -2.42485465347
252.531566446       -2.41480705306
253.031628954       -2.402383819
253.531691461       -2.38794285288
254.031753969       -2.37180608546
254.531816477       -2.35426241356
255.031878985       -2.33557060526
255.531941493       -2.31596210418
256.032004001       -2.29564368959
256.532066508       -2.27479996754
257.032129016       -2.25359568134
257.532191524       -2.23217783886
258.032254032       -2.21067766028
258.53231654       -2.18921235403
259.032379047       -2.16788673092
259.532441555       -2.14679466814
260.032504063       -2.12602043525
260.532566571       -2.10563989442
261.032629079       -2.08572158689
261.532691586       -2.06632771723
262.032754094       -2.04751504613
262.532816602       -2.0293357022
263.03287911       -2.01183792203
263.532941618       -1.9950667274
264.033004126       -1.97906454792
264.533066633       -1.96387179644
265.033129141       -1.94952740433
265.533191649       -1.93606932312
266.033254157       -1.92353499842
266.533316665       -1.911961822
267.033379172       -1.90138756709
267.53344168       -1.89185081233
268.033504188       -1.88339135896
268.533566696       -1.87605064625
269.033629204       -1.86987216979
269.533691711       -1.86490190727
270.033754219       -1.86118875649
270.533816727       -1.85878499043
271.033879235       -1.85774673425
271.533941743       -1.8581344694
272.034004251       -1.86001357012
272.534066758       -1.86345487816
273.034129266       -1.86853532148
273.534191774       -1.87533858348
274.034254282       -1.88395582947
274.53431679       -1.89448649751
