#  x                 y             frequency           rot. str.
0.0      -0.144168903071      29.55      -2.11
0.500062507813      -0.148802032414      231.74      18.90
1.00012501563      -0.153657723687      234.98      -5.09
1.50018752344      -0.158750006813      261.12      9.83
2.00025003125      -0.164093995646      289.63      -22.71
2.50031253907      -0.169705985744      371.36      -35.37
3.00037504688      -0.175603562019      531.18      9.52
3.50043755469      -0.181805717324      598.13      26.28
4.00050006251      -0.188332983158      612.99      -3.95
4.50056257032      -0.195207573799      775.64      -3.19
5.00062507813      -0.202453545287      780.15      38.34
5.50068758595      -0.210096970851      870.56      26.39
6.00075009376      -0.218166134494      921.59      -2.14
6.50081260158      -0.226691744633      1020.88      25.24
7.00087510939      -0.235707169814      1046.64      -103.44
7.5009376172      -0.24524869871      1145.18      -57.90
8.00100012502      -0.255355826708      1180.87      81.15
8.50106263283      -0.266071571541      1270.40      -5.01
9.00112514064      -0.277442820452      1330.81      23.54
9.50118764846      -0.289520711407      1347.06      11.84
10.0012501563      -0.302361050756      1399.95      -43.89
10.5013126641      -0.316024769503      1407.91      9.33
11.0013751719      -0.330578419881      1492.22      2.48
11.5014376797      -0.34609471319      1498.31      -0.28
12.0015001875      -0.362653098702      1666.59      15.87
12.5015626953      -0.380340381722      1806.57      -46.69
13.0016252032      -0.399251376438      3039.21      -0.70
13.501687711      -0.419489585727      3071.99      -2.91
14.0017502188      -0.441167895239      3107.54      2.43
14.5018127266      -0.464409262429      3121.73      0.15
15.0018752344      -0.489347372216      3487.83      0.09
15.5019377422      -0.51612721877      3563.76      3.89
16.00200025      -0.544905556815      3726.24      0.53
16.5020627578       -0.575851144471
17.0021252657       -0.609144671914
17.5021877735       -0.644978234324
18.0022502813       -0.683554162177
18.5023127891       -0.725082965453
19.0023752969       -0.76978007964
19.5024378047       -0.817861020758
20.0025003125       -0.869534466335
20.5025628204       -0.924992685622
21.0026253282       -0.984398658079
21.502687836       -1.04786916666
22.0027503438       -1.11545316785
22.5028128516       -1.18710487771
23.0028753594       -1.26265134691
23.5029378672       -1.34175491945
24.003000375       -1.42387197768
24.5030628829       -1.50821084108
25.0031253907       -1.59369360021
25.5031878985       -1.67892886005
26.0032504063       -1.76220441356
26.5033129141       -1.84151002881
27.0033754219       -1.9145998062
27.5034379297       -1.97909992612
28.0035004376       -2.0326605216
28.5035629454       -2.07314044395
29.0036254532       -2.0988029667
29.503687961       -2.10849246254
30.0037504688       -2.10176046339
30.5038129766       -2.07891635863
31.0038754844       -2.040992313
31.5039379922       -1.98962964106
32.0040005001       -1.92690920759
32.5040630079       -1.85515683291
33.0041255157       -1.77675454581
33.5041880235       -1.69398144369
34.0042505313       -1.60889741017
34.5043130391       -1.5232726256
35.0043755469       -1.43855810036
35.5044380548       -1.35588820226
36.0045005626       -1.27610495435
36.5045630704       -1.19979477295
37.0046255782       -1.12733026408
37.504688086       -1.05891190299
38.0047505938       -0.994606406357
38.5048131016       -0.934380158996
39.0048756095       -0.8781271455
39.5049381173       -0.825691523406
40.0050006251       -0.77688535416
40.5050631329       -0.731502175634
41.0051256407       -0.689327133284
41.5051881485       -0.6501443439
42.0052506563       -0.613742085494
42.5053131641       -0.579916313757
43.005375672       -0.548472913987
43.5054381798       -0.519229014668
44.0055006876       -0.492013617925
44.5055631954       -0.466667743375
45.0056257032       -0.443044234547
45.505688211       -0.421007339576
46.0057507188       -0.40043214875
46.5058132267       -0.381203949052
47.0058757345       -0.363217538854
47.5059382423       -0.346376533076
48.0060007501       -0.330592679604
48.5060632579       -0.315785200729
49.0061257657       -0.30188016822
49.5061882735       -0.288809916958
50.0062507813       -0.27651249943
50.5063132892       -0.264931181555
51.006375797       -0.254013979048
51.5064383048       -0.243713232762
52.0065008126       -0.233985220899
52.5065633204       -0.224789805713
53.0066258282       -0.216090112234
53.506688336       -0.20785223648
54.0067508439       -0.200044980708
54.5068133517       -0.192639613367
55.0068758595       -0.185609651525
55.5069383673       -0.178930663712
56.0070008751       -0.172580091259
56.5070633829       -0.166537086387
57.0071258907       -0.160782365436
57.5071883985       -0.155298075766
58.0072509064       -0.150067675017
58.5073134142       -0.145075821508
59.007375922       -0.140308274711
59.5074384298       -0.135751804797
60.0075009376       -0.131394110392
60.5075634454       -0.127223743731
61.0076259532       -0.123230042509
61.5076884611       -0.119403067767
62.0077509689       -0.115733547257
62.5078134767       -0.112212823741
63.0078759845       -0.108832807771
63.5079384923       -0.105585934523
64.0080010001       -0.102465124305
64.5080635079       -0.0994637463994
65.0081260158       -0.0965755859274
65.5081885236       -0.0937948134631
66.0082510314       -0.0911159571444
66.5083135392       -0.088533877055
67.008376047       -0.0860437416752
67.5084385548       -0.0836410062153
68.0085010626       -0.0813213926673
68.5085635704       -0.0790808714238
69.0086260783       -0.0769156443265
69.5086885861       -0.074822129024
70.0087510939       -0.0727969445238
70.5088136017       -0.0708368978393
71.0088761095       -0.0689389716392
71.5089386173       -0.0671003128154
72.0090011251       -0.065318221893
72.509063633       -0.0635901432153
73.0091261408       -0.0619136558375
73.5091886486       -0.0602864650754
74.0092511564       -0.0587063946537
74.5093136642       -0.0571713794086
75.009376172       -0.0556794584992
75.5094386798       -0.0542287690895
76.0095011876       -0.0528175404634
76.5095636955       -0.0514440885402
77.0096262033       -0.05010681076
77.5096887111       -0.0488041813101
78.0097512189       -0.0475347466685
78.5098137267       -0.0462971214392
79.0098762345       -0.0450899844594
79.5099387423       -0.0439120751569
80.0100012502       -0.0427621901412
80.510063758       -0.0416391800108
81.0101262658       -0.0405419463607
81.5101887736       -0.0394694389766
82.0102512814       -0.0384206532029
82.5103137892       -0.0373946274711
83.010376297       -0.0363904409793
83.5104388049       -0.0354072115103
84.0105013127       -0.0344440933808
84.5105638205       -0.0335002755116
85.0106263283       -0.032574979611
85.5106888361       -0.0316674584639
86.0107513439       -0.0307769943197
86.5108138517       -0.0299028973716
87.0108763595       -0.0290445043232
87.5109388674       -0.0282011770346
88.0110013752       -0.0273723012441
88.511063883       -0.0265572853609
89.0111263908       -0.0257555593227
89.5111888986       -0.0249665735167
90.0112514064       -0.0241897977566
90.5113139142       -0.0234247203158
91.0113764221       -0.0226708470104
91.5114389299       -0.0219277003302
92.0115014377       -0.0211948186149
92.5115639455       -0.0204717552722
93.0116264533       -0.0197580780353
93.5116889611       -0.0190533682581
94.0117514689       -0.0183572202449
94.5118139767       -0.0176692406132
95.0118764846       -0.0169890476871
95.5119389924       -0.0163162709205
96.0120015002       -0.0156505503467
96.512064008       -0.0149915360546
97.0121265158       -0.0143388876887
97.5121890236       -0.013692273972
98.0122515314       -0.0130513722507
98.5123140393       -0.0124158680587
99.0123765471       -0.0117854547015
99.5124390549       -0.0111598328581
100.012501563       -0.0105387101997
100.512564071       -0.00992180102438
101.012626578       -0.0093088259071
101.512689086       -0.00869951136352
102.012751594       -0.00809358952742
102.512814102       -0.00749079784062
103.01287661       -0.00689087875478
103.512939117       -0.00629357944438
104.013001625       -0.00569865153025
104.513064133       -0.00510585081288
105.013126641       -0.00451493701522
105.513189149       -0.00392567353408
106.013251656       -0.00333782719985
106.513314164       -0.00275116804394
107.013376672       -0.00216546907344
107.51343918       -0.0015805060526
108.013501688       -0.000996057290716
108.513564196       -0.000411903435934
109.013626703       0.000172172725379
109.513689211       0.00075638646404
110.013751719       0.00134095129864
110.513814227       0.00192607918165
111.013876735       0.00251198068133
111.513939242       0.00309886515983
112.01400175       0.0036869409477
112.514064258       0.00427641551525
113.014126766       0.00486749564078
113.514189274       0.00546038757626
114.014251781       0.0060552972105
114.514314289       0.00665243023017
115.014376797       0.00725199227886
115.514439305       0.0078541891145
116.014501813       0.00845922676526
116.514564321       0.00906731168428
117.014626828       0.00967865090336
117.514689336       0.0102934521859
118.014751844       0.0109119241792
118.514814352       0.0115342765665
119.01487686       0.0121607202189
119.514939367       0.0127914673471
120.015001875       0.0134267316537
120.515064383       0.0140667284857
121.015126891       0.0147116749881
121.515189399       0.0153617902577
122.015251906       0.0160172954984
122.515314414       0.0166784141782
123.015376922       0.0173453721864
123.51543943       0.018018397994
124.015501938       0.0186977228146
124.515564446       0.0193835807684
125.015626953       0.0200762090483
125.515689461       0.0207758480876
126.015751969       0.0214827417319
126.515814477       0.0221971374128
127.015876985       0.0229192863251
127.515939492       0.0236494436075
128.016002       0.0243878685267
128.516064508       0.0251348246658
129.016127016       0.025890580116
129.516189524       0.0266554076735
130.016252032       0.0274295850403
130.516314539       0.0282133950304
131.016377047       0.0290071257807
131.516439555       0.0298110709676
132.016502063       0.0306255300293
132.516564571       0.0314508083937
133.016627078       0.0322872177131
133.516689586       0.0331350761054
134.016752094       0.0339947084019
134.516814602       0.0348664464031
135.01687711       0.0357506291413
135.516939617       0.0366476031519
136.017002125       0.0375577227527
136.517064633       0.0384813503324
137.017127141       0.0394188566481
137.517189649       0.0403706211323
138.017252157       0.0413370322104
138.517314664       0.0423184876282
139.017377172       0.0433153947916
139.51743968       0.0443281711164
140.017502188       0.0453572443917
140.517564696       0.0464030531547
141.017627203       0.04746604708
141.517689711       0.0485466873817
142.017752219       0.0496454472312
142.517814727       0.0507628121889
143.017877235       0.0518992806533
143.517939742       0.0530553643253
144.01800225       0.0542315886913
144.518064758       0.0554284935237
145.018127266       0.0566466334007
145.518189774       0.0578865782465
146.018252282       0.0591489138919
146.518314789       0.0604342426575
147.018377297       0.0617431839592
147.518439805       0.0630763749385
148.018502313       0.0644344711174
148.518564821       0.0658181470804
149.018627328       0.0672280971837
149.518689836       0.0686650362938
150.018752344       0.0701297005562
150.518814852       0.0716228481971
151.01887736       0.0731452603571
151.518939867       0.0746977419613
152.019002375       0.0762811226261
152.519064883       0.0778962576044
153.019127391       0.0795440287718
153.519189899       0.0812253456557
154.019252407       0.0829411465092
154.519314914       0.0846923994321
155.019377422       0.0864801035416
155.51943993       0.0883052901954
156.019502438       0.0901690242696
156.519564946       0.0920724054939
157.019627453       0.0940165698482
157.519689961       0.096002691023
158.019752469       0.0980319819468
158.519814977       0.100105696385
159.019877485       0.102225130612
159.519939992       0.104391625165
160.0200025       0.106606566678
160.520065008       0.108871389806
161.020127516       0.111187579236
161.520190024       0.113556671805
162.020252532       0.11598025871
162.520315039       0.118459987837
163.020377547       0.120997566197
163.520440055       0.123594762486
164.020502563       0.126253409774
164.520565071       0.12897540833
165.020627578       0.131762728589
165.520690086       0.134617414268
166.020752594       0.137541585654
166.520815102       0.140537443044
167.02087761       0.143607270386
167.520940118       0.14675343909
168.021002625       0.149978412064
168.521065133       0.153284747944
169.021127641       0.156675105568
169.521190149       0.160152248683
170.021252657       0.163719050912
170.521315164       0.167378501
171.021377672       0.171133708338
171.52144018       0.174987908809
172.021502688       0.178944470958
172.521565196       0.183006902506
173.021627703       0.187178857252
173.521690211       0.191464142353
174.021752719       0.195866726046
174.521815227       0.200390745806
175.021877735       0.205040516998
175.521940243       0.209820542039
176.02200275       0.214735520101
176.522065258       0.219790357421
177.022127766       0.224990178216
177.522190274       0.230340336286
178.022252782       0.235846427329
178.522315289       0.241514302024
179.022377797       0.247350079943
179.522440305       0.253360164345
180.022502813       0.259551257914
180.522565321       0.265930379523
181.022627828       0.272504882081
181.522690336       0.279282471561
182.022752844       0.286271227285
182.522815352       0.293479623569
183.02287786       0.30091655283
183.522940368       0.308591350262
184.023002875       0.316513820215
184.523065383       0.324694264392
185.023127891       0.333143512032
185.523190399       0.341872952213
186.023252907       0.350894568463
186.523315414       0.360220975856
187.023377922       0.369865460801
187.52344043       0.379842023751
188.023502938       0.39016542506
188.523565446       0.400851234272
189.023627953       0.411915883119
189.523690461       0.423376722554
190.023752969       0.435252084158
190.523815477       0.44756134632
191.023877985       0.460325005584
191.523940493       0.473564753649
192.024003       0.487303560508
192.524065508       0.501565764291
193.024128016       0.516377168423
193.524190524       0.531765146768
194.024253032       0.547758757498
194.524315539       0.564388866514
195.024378047       0.581688281315
195.524440555       0.599691896311
196.024503063       0.618436850689
196.524565571       0.637962700044
197.024628079       0.658311603128
197.524690586       0.679528525207
198.024753094       0.701661459684
198.524815602       0.724761669821
199.02487811       0.748883952596
199.524940618       0.774086926954
200.025003125       0.800433348963
200.525065633       0.827990456661
201.025128141       0.85683034769
201.525190649       0.887030393159
202.025253157       0.918673691577
202.525315664       0.9518495671
203.025378172       0.986654116824
203.52544068       1.0231908124
204.025503188       1.06157116183
204.525565696       1.10191543786
205.025628204       1.14435348032
205.525690711       1.18902558028
206.025753219       1.23608345484
206.525815727       1.28569132253
207.025878235       1.33802708976
207.525940743       1.39328366047
208.02600325       1.45167038159
208.526065758       1.51341463869
209.026128266       1.57876361678
209.526190774       1.64798624269
210.026253282       1.72137532629
210.526315789       1.79924991861
211.026378297       1.88195790526
211.526440805       1.96987885359
212.026503313       2.06342713088
212.526565821       2.16305530894
213.026628329       2.26925786665
213.526690836       2.38257519591
214.026753344       2.50359790733
214.526815852       2.63297141824
215.02687836       2.77140078618
215.526940868       2.91965572337
216.027003375       3.07857568964
216.527065883       3.24907490867
217.027128391       3.43214708137
217.527190899       3.62886947444
218.027253407       3.84040593483
218.527315914       4.06800821263
219.027378422       4.31301475547
219.52744093       4.57684585475
220.027503438       4.86099366402
220.527565946       5.16700516099
221.027628454       5.49645557702
221.527690961       5.85090917055
222.027753469       6.23186349093
222.527815977       6.64067251125
223.027878485       7.07844329966
223.527940993       7.54590042024
224.0280035       8.0432122891
224.528066008       8.56977468842
225.028128516       9.1239491659
225.528191024       9.70275888976
226.028253532       10.3015525523
226.52831604       10.9136588416
227.028378547       11.5300700047
227.528441055       12.1392120532
228.028503563       12.7268781091
228.528566071       13.2764143965
229.028628579       13.7692468566
229.528691086       14.1858106093
230.028753594       14.5068874776
230.528816102       14.7152698393
231.02887861       14.7975669646
231.528941118       14.7458817063
232.029003625       14.5590467745
232.529066133       14.2431485335
233.029128641       13.8111857158
233.529191149       13.2818827866
234.029253657       12.6778522736
234.529316165       12.0234245759
235.029378672       11.3425044723
235.52944118       10.65676783
236.029503688       9.98440373371
236.529566196       9.3394741587
237.029628704       8.73184250751
237.529691211       8.16753949526
238.029753719       7.6493995574
238.529816227       7.17780790363
239.029878735       6.75143299608
239.529941243       6.36786472466
240.03000375       6.02412130787
240.530066258       5.71702026493
241.030128766       5.44342861284
241.530191274       5.2004164044
242.030253782       4.98533910601
242.53031629       4.79587140753
243.030378797       4.63001039441
243.530441305       4.48606118891
244.030503813       4.36261399189
244.530566321       4.25851820702
245.030628829       4.17285698359
245.530691336       4.10492391977
246.030753844       4.0542026372
246.530816352       4.02034929952
247.03087886       4.00317776322
247.530941368       4.00264681575
248.031003875       4.01884880091
248.531066383       4.05199880308
249.031128891       4.10242342588
249.531191399       4.17054803232
250.031253907       4.25688109684
250.531316415       4.36199404377
251.031378922       4.48649461043
251.53144143       4.6309913853
252.031503938       4.79604675953
252.531566446       4.9821151516
253.031628954       5.18946311845
253.531691461       5.41806801812
254.031753969       5.66749248005
254.531816477       5.93673341206
255.031878985       6.22404704916
255.531941493       6.52675608595
256.032004001       6.84105158326
256.532066508       7.16181110476
257.032129016       7.48246470576
257.532191524       7.79495009968
258.032254032       8.08980424686
258.53231654       8.35643613801
259.032379047       8.58360986335
259.532441555       8.76013535539
260.032504063       8.87571859533
260.532566571       8.92187286013
261.032629079       8.89275354937
261.532691586       8.78576859514
262.032754094       8.60184506161
262.532816602       8.34529698029
263.03287911       8.02332141832
263.532941618       7.64522304546
264.033004126       7.22150979515
264.533066633       6.76300474666
265.033129141       6.28008846066
265.533191649       5.78213766882
266.033254157       5.27717756408
266.533316665       4.77172779863
267.033379172       4.27080114451
267.53344168       3.77800718398
268.033504188       3.2957169491
268.533566696       2.82525326177
269.033629204       2.36708180976
269.533691711       1.92098737706
270.033754219       1.48622705996
270.533816727       1.06165754349
271.033879235       0.645836853108
271.533941743       0.237102872459
