#  x                 y             frequency           intensity
0.0       0.00275153369485       25.97       0.51337
0.500062507813       0.00337271113005       34.14       0.97726
1.00012501563       0.00411867655461       51.46       2.33663
1.50018752344       0.00501088843854       69.37       0.66174
2.00025003125       0.00607372028201       92.59       1.42060
2.50031253907       0.00733470393623       126.38       1.34251
3.00037504688       0.00882476451431       136.23       0.44266
3.50043755469       0.010578440342       143.91       1.33581
4.00050006251       0.012634080604       155.83       2.84332
4.50056257032       0.0150340126257       166.50       0.71221
5.00062507813       0.0178246701256       192.94       3.80601
5.50068758595       0.0210566733268       214.63       4.15730
6.00075009376       0.0247848515548       227.59       1.08370
6.50081260158       0.029068198917       243.33       2.41932
7.00087510939       0.0339697538865       266.19       34.62430
7.5009376172       0.0395563941265       284.03       77.37549
8.00100012502       0.045898538712       287.75       27.49944
8.50106263283       0.0530697510454       326.10       18.44134
9.00112514064       0.0611462372161       327.37       41.19196
9.50118764846       0.0702062363202       370.95       9.14404
10.0012501563       0.0803293013035       379.85       2.40637
10.5013126641       0.0915954711827       391.22       4.43029
11.0013751719       0.104084338001       411.30       6.95298
11.5014376797       0.117874014511       442.03       4.17476
12.0015001875       0.133040011288       463.30       0.81022
12.5015626953       0.149654034721       481.25       8.57527
13.0016252032       0.167782719956       519.35       0.29383
13.501687711       0.187486315392       531.34       8.54172
14.0017502188       0.208817337642       545.55       5.32029
14.5018127266       0.231819217861       560.22       1.50915
15.0018752344       0.256524962083       568.36       7.71269
15.5019377422       0.282955849491       596.18       0.83492
16.00200025       0.311120193527       602.29       8.64430
16.5020627578       0.341012191243       637.78       3.44147
17.0021252657       0.37261088644       650.97       10.84103
17.5021877735       0.405879271914       652.21       46.77280
18.0022502813       0.440763555461       667.93       52.21475
18.5023127891       0.477192613435       678.05       20.22620
19.0023752969       0.515077654351       708.09       3.09024
19.5024378047       0.554312113582       730.64       13.73358
20.0025003125       0.594771798447       767.96       12.64547
20.5025628204       0.636315300997       783.38       4.28824
21.0026253282       0.678784693621       790.44       3.27899
21.502687836       0.722006520066       802.36       6.38354
22.0027503438       0.765793091655       833.17       2.11667
22.5028128516       0.809944095286       836.65       23.11187
23.0028753594       0.854248516081       849.41       3.21668
23.5029378672       0.898486873348       856.79       1.28722
24.003000375       0.942433763586       871.96       50.98522
24.5030628829       0.985860698669       883.65       7.48739
25.0031253907       1.02853922093       908.12       10.97635
25.5031878985       1.07024426967       929.57       18.12228
26.0032504063       1.11075776561       940.55       9.52111
26.5033129141       1.14987237119       945.20       4.56525
27.0033754219       1.18739537525       953.32       15.63808
27.5034379297       1.22315264122       974.35       0.45802
28.0035004376       1.25699254823       985.79       1.35823
28.5035629454       1.28878984518       987.61       0.36119
29.0036254532       1.31844932929       1011.46       13.61408
29.503687961       1.3459092533       1019.36       19.43834
30.0037504688       1.37114435949       1043.76       2.26254
30.5038129766       1.39416843555       1049.35       27.46284
31.0038754844       1.4150362861       1061.46       53.41884
31.5039379922       1.4338450163       1068.80       21.53379
32.0040005001       1.45073452956       1078.36       18.97559
32.5040630079       1.46588715131       1109.46       26.24787
33.0041255157       1.47952630423       1123.52       17.70633
33.5041880235       1.49191417804       1133.05       3.80760
34.0042505313       1.50334835879       1149.28       0.40043
34.5043130391       1.51415740728       1160.19       12.77745
35.0043755469       1.52469540465       1173.07       0.70277
35.5044380548       1.53533551371       1185.50       2.44067
36.0045005626       1.5464626365       1207.92       5.33003
36.5045630704       1.55846528132       1224.84       13.18972
37.0046255782       1.57172678433       1231.77       15.60228
37.504688086       1.58661606141       1235.29       35.08944
38.0047505938       1.60347809285       1251.46       6.31342
38.5048131016       1.62262436716       1261.53       50.95381
39.0048756095       1.64432352758       1271.49       132.49738
39.5049381173       1.66879247679       1274.52       3.57177
40.0050006251       1.69618819935       1288.56       16.81704
40.5050631329       1.72660055784       1294.87       25.54335
41.0051256407       1.7600463068       1323.13       14.24221
41.5051881485       1.79646454814       1333.80       5.14471
42.0052506563       1.83571382316       1338.55       1.76724
42.5053131641       1.87757099984       1347.83       1.32365
43.005375672       1.92173207094       1357.06       8.86526
43.5054381798       1.96781492901       1358.60       18.67364
44.0055006876       2.015364131       1361.38       9.37928
44.5055631954       2.06385760855       1371.77       14.39431
45.0056257032       2.11271522233       1382.03       11.18494
45.505688211       2.16130900259       1385.94       16.20903
46.0057507188       2.2089748634       1391.42       1.64787
46.5058132267       2.25502552968       1403.49       4.27915
47.0058757345       2.298764373       1412.70       4.13450
47.5059382423       2.33949981798       1421.21       22.08534
48.0060007501       2.37655995647       1468.28       46.38755
48.5060632579       2.40930699241       1478.31       9.44849
49.0061257657       2.43715113812       1490.67       4.38632
49.5061882735       2.45956359159       1492.53       9.08321
50.0062507813       2.47608824557       1497.18       5.89618
50.5063132892       2.48635181114       1500.20       12.07906
51.006375797       2.49007208096       1502.04       2.21272
51.5064383048       2.4870641083       1508.90       57.46428
52.0065008126       2.47724413698       1511.86       4.37716
52.5065633204       2.46063118044       1544.80       78.50799
53.0066258282       2.43734621602       1609.32       3.88844
53.506688336       2.40760902786       1630.38       17.01900
54.0067508439       2.37173279907       1662.69       125.86030
54.5068133517       2.33011661647       2206.56       16.32419
55.0068758595       2.28323610955       3010.85       37.31033
55.5069383673       2.23163249462       3021.99       8.92577
56.0070008751       2.17590033702       3031.29       28.52398
56.5070633829       2.11667437482       3041.44       7.17186
57.0071258907       2.0546157675       3044.29       68.61671
57.5071883985       1.99039814146       3046.50       22.78284
58.0072509064       1.92469380131       3051.30       24.96311
58.5073134142       1.85816046178       3061.48       4.55980
59.007375922       1.79142883035       3065.76       51.54211
59.5074384298       1.72509133753       3067.70       29.54946
60.0075009376       1.65969226981       3071.93       26.42094
60.5075634454       1.5957195128       3077.50       26.92828
61.0076259532       1.53359805972       3089.17       66.01679
61.5076884611       1.47368538552       3135.79       29.73303
62.0077509689       1.41626873134       3136.94       23.24273
62.5078134767       1.36156428903       3163.57       2.07419
63.0078759845       1.30971822345       3187.15       1.51690
63.5079384923       1.2608094223       3203.16       7.66636
64.0080010001       1.21485382047       3218.01       9.13811
64.5080635079       1.17181010965       3250.90       4.62272
65.0081260158       1.1315866152       3468.06       76.54136
65.5081885236       1.09404910053       3772.39       43.32546
66.0082510314       1.05902924595
66.5083135392       1.02633354314
67.008376047       0.995752348228
67.5084385548       0.967068845129
68.0085010626       0.940067685682
68.5085635704       0.914543093665
69.0086260783       0.890306244339
69.5086885861       0.867191759423
70.0087510939       0.845063187878
70.5088136017       0.823817374681
71.0088761095       0.803387651942
71.5089386173       0.783745818261
72.0090011251       0.764902902521
72.509063633       0.746908736474
73.0091261408       0.729850386249
73.5091886486       0.713849515635
74.0092511564       0.699058773654
74.5093136642       0.685657315317
75.009376172       0.67384557753
75.5094386798       0.663839442119
76.0095011876       0.655863924919
76.5095636955       0.650146534156
77.0096262033       0.646910443161
77.5096887111       0.646367622086
78.0097512189       0.648712070986
78.5098137267       0.654113292605
79.0098762345       0.662710137675
79.5099387423       0.674605148533
80.0100012502       0.689859518566
80.510063758       0.708488775304
81.0101262658       0.73045928394
81.5101887736       0.755685655585
82.0102512814       0.78402913057
82.5103137892       0.815296991592
83.010376297       0.849243044389
83.5104388049       0.885569185009
84.0105013127       0.923928052693
84.5105638205       0.963926746178
85.0106263283       1.0051315591
85.5106888361       1.04707366759
86.0107513439       1.08925568073
86.5108138517       1.13115894245
87.0108763595       1.17225145322
87.5109388674       1.21199626123
88.0110013752       1.24986015699
88.511063883       1.28532249326
89.0111263908       1.31788394386
89.5111888986       1.34707501152
90.0112514064       1.37246409643
90.5113139142       1.39366494387
91.0113764221       1.41034330128
91.5114389299       1.42222263259
92.0115014377       1.42908875922
92.5115639455       1.43079332349
93.0116264533       1.42725599989
93.5116889611       1.41846541157
94.0117514689       1.4044787432
94.5118139767       1.38542007543
95.0118764846       1.36147749959
95.5119389924       1.33289910237
96.0120015002       1.29998793942
96.512064008       1.26309614066
97.0121265158       1.22261831067
97.5121890236       1.17898440165
98.0122515314       1.13265224548
98.5123140393       1.08409993412
99.0123765471       1.03381823445
99.5124390549       0.982303214751
100.012501563       0.930049245986
100.512564071       0.877542522175
101.012626578       0.825255221486
101.512689086       0.77364040418
102.012751594       0.723127715859
102.512814102       0.674119935975
103.01287661       0.626990382996
103.512939117       0.582081160129
104.013001625       0.539702199866
104.513064133       0.500131042668
105.013126641       0.463613265509
105.513189149       0.430363460271
106.013251656       0.400566650465
106.513314164       0.374380027742
107.013376672       0.351934887099
107.51343918       0.33333864162
108.013501688       0.318676803692
108.513564196       0.308014829657
109.013626703       0.301399738279
109.513689211       0.29886142974
110.013751719       0.300413650501
110.513814227       0.306054569621
111.013876735       0.315766953317
111.513939242       0.329517945982
112.01400175       0.347258486805
112.514064258       0.368922410916
113.014126766       0.394425301839
113.514189274       0.423663177537
114.014251781       0.456511104689
114.514314289       0.49282184481
115.014376797       0.532424640848
115.514439305       0.57512425382
116.014501813       0.620700355677
116.514564321       0.668907376942
117.014626828       0.719474895823
117.514689336       0.772108639836
118.014751844       0.826492151803
118.514814352       0.882289150037
119.01487686       0.9391465883
119.514939367       0.996698395434
120.015001875       1.05456984845
120.515064383       1.11238250705
121.015126891       1.16975961341
121.515189399       1.2263318388
122.015251906       1.2817432404
122.515314414       1.33565727666
123.015376922       1.38776272019
123.51543943       1.43777930255
124.015501938       1.48546292684
124.515564446       1.53061029088
125.015626953       1.57306277701
125.515689461       1.6127094827
126.015751969       1.64948928951
126.515814477       1.68339189537
127.015876985       1.71445776591
127.515939492       1.74277699311
128.016002       1.76848708375
128.516064508       1.7917697331
129.016127016       1.81284667168
129.516189524       1.83197470153
130.016252032       1.84944006391
130.516314539       1.86555230048
131.016377047       1.88063778417
131.516439555       1.89503310443
132.016502063       1.9090784924
132.516564571       1.92311146629
133.016627078       1.93746086495
133.516689586       1.95244141928
134.016752094       1.96834898702
134.516814602       1.98545654824
135.01687711       2.00401102658
135.516939617       2.02423096744
136.017002125       2.04630506909
136.517064633       2.07039152898
137.017127141       2.09661813459
137.517189649       2.12508300053
138.017252157       2.15585582874
138.517314664       2.18897955144
139.017377172       2.22447220456
139.51743968       2.26232887548
140.017502188       2.30252357255
140.517564696       2.34501087452
141.017627203       2.3897272364
141.517689711       2.43659185263
142.017752219       2.48550700861
142.517814727       2.53635788556
143.017877235       2.58901182049
143.517939742       2.64331706063
144.01800225       2.69910108863
144.518064758       2.75616862866
145.018127266       2.81429947344
145.518189774       2.87324629602
146.018252282       2.93273262613
146.518314789       2.99245117941
147.018377297       3.05206272595
147.518439805       3.11119567487
148.018502313       3.16944653093
148.518564821       3.22638135177
149.018627328       3.28153829742
149.518689836       3.33443132237
150.018752344       3.38455501365
150.518814852       3.43139052947
151.01887736       3.47441254414
151.518939867       3.51309705825
152.019002375       3.54692989011
152.519064883       3.57541562871
153.019127391       3.59808680007
153.519189899       3.61451298064
154.019252407       3.6243095831
154.519314914       3.62714604332
155.019377422       3.62275315133
155.51943993       3.61092929365
156.019502438       3.59154540869
156.519564946       3.56454849916
157.019627453       3.52996359372
157.519689961       3.48789410286
158.019752469       3.43852056847
158.519814977       3.38209786023
159.019877485       3.31895092373
159.519939992       3.2494692312
160.0200025       3.17410012565
160.520065008       3.093341281
161.020127516       3.00773252294
161.520190024       2.91784726788
162.020252532       2.82428383991
162.520315039       2.7276569183
163.020377547       2.62858935191
163.520440055       2.52770455235
164.020502563       2.42561964693
164.520565071       2.32293953604
165.020627578       2.22025196029
165.520690086       2.11812364117
166.020752594       2.01709751777
166.520815102       1.91769106206
167.02087761       1.82039561796
167.520940118       1.72567667653
168.021002625       1.63397497074
168.521065133       1.54570825062
169.021127641       1.46127358187
169.521190149       1.38104999975
170.021252657       1.30540134372
170.521315164       1.23467909803
171.021377672       1.16922506747
171.52144018       1.10937372624
172.021502688       1.05545409028
172.521565196       1.00779097921
173.021627703       0.966705552534
173.521690211       0.932515025646
174.021752719       0.905531493941
174.521815227       0.886059817927
175.021877735       0.874394548005
175.521940243       0.870815894685
176.02200275       0.875584777974
176.522065258       0.888937018403
177.022127766       0.911076761236
177.522190274       0.942169254585
178.022252782       0.982333130779
178.522315289       1.03163236792
179.022377797       1.09006813426
179.522440305       1.15757074111
180.022502813       1.23399194924
180.522565321       1.31909788842
181.022627828       1.41256285881
181.522690336       1.51396428473
182.022752844       1.62277908641
182.522815352       1.73838172099
183.02287786       1.8600441217
183.522940368       1.98693773242
184.023002875       2.11813779383
184.523065383       2.2526299885
185.023127891       2.38931949543
185.523190399       2.52704244141
186.023252907       2.66457966897
186.523315414       2.80067267017
187.023377922       2.9340414646
187.52344043       3.06340413084
188.023502938       3.18749763597
188.523565446       3.30509955006
189.023627953       3.41505018367
189.523690461       3.51627464941
190.023752969       3.60780432417
190.523815477       3.68879717894
191.023877985       3.75855644868
191.523940493       3.81654713589
192.024003       3.86240987816
192.524065508       3.89597176118
193.024128016       3.91725372312
193.524190524       3.92647427252
194.024253032       3.92404932669
194.524315539       3.91058806994
195.024378047       3.88688482657
195.524440555       3.85390704085
196.024503063       3.81277955128
196.524565571       3.76476543756
197.024628079       3.71124380231
197.524690586       3.65368492466
198.024753094       3.59362328638
198.524815602       3.53262902264
199.02487811       3.47227838718
199.524940618       3.41412384552
200.025003125       3.35966441915
200.525065633       3.31031689895
201.025128141       3.2673885277
201.525190649       3.23205172038
202.025253157       3.20532134768
202.525315664       3.18803505439
203.025378172       3.18083702106
203.52544068       3.18416550582
204.025503188       3.19824442547
204.525565696       3.22307915147
205.025628204       3.25845661002
205.525690711       3.30394968619
206.025753219       3.35892584275
206.525815727       3.42255977613
207.025878235       3.49384984616
207.525940743       3.57163793541
208.02600325       3.65463231915
208.526065758       3.7414330601
209.026128266       3.83055938522
209.526190774       3.92047845616
210.026253282       4.00963491229
210.526315789       4.09648054653
211.026378297       4.17950347122
211.526440805       4.25725614337
212.026503313       4.32838164761
212.526565821       4.39163767931
213.026628329       4.44591773
213.526690836       4.49026905031
214.026753344       4.52390705088
214.526815852       4.54622589622
215.02687836       4.55680514796
215.526940868       4.55541241918
216.027003375       4.54200210655
216.527065883       4.51671036951
217.027128391       4.47984662118
217.527190899       4.43188188147
218.027253407       4.37343441566
218.527315914       4.30525313993
219.027378422       4.22819931533
219.52744093       4.1432270747
220.027503438       4.05136333002
220.527565946       3.95368759334
221.027628454       3.85131221148
221.527690961       3.74536346721
222.027753469       3.63696393767
222.527815977       3.52721642949
223.027878485       3.41718973059
223.527940993       3.30790633643
224.0280035       3.20033222565
224.528066008       3.09536868093
225.028128516       2.99384607849
225.528191024       2.89651950704
226.028253532       2.80406602594
226.52831604       2.71708333556
227.028378547       2.63608961052
227.528441055       2.56152423965
228.028503563       2.49374922413
228.528566071       2.43305100741
229.028628579       2.37964254405
229.528691086       2.33366545922
230.028753594       2.29519220143
230.528816102       2.26422814809
231.02887861       2.24071368068
231.528941118       2.22452630324
232.029003625       2.21548292983
232.529066133       2.21334251211
233.029128641       2.21780921395
233.529191149       2.2285363651
234.029253657       2.24513143805
234.529316165       2.2671622915
235.029378672       2.29416490878
235.52944118       2.32565283188
236.029503688       2.36112845071
236.529566196       2.40009625506
237.029628704       2.44207809457
237.529691211       2.48663042211
