#  x                 y             frequency           intensity
0.0       0.0107371196741       15.63       0.06071
0.500062507813       0.012205227651       21.83       0.07178
1.00012501563       0.0138245122341       45.73       0.65244
1.50018752344       0.015602860884       47.67       0.04453
2.00025003125       0.0175474429953       70.35       2.53135
2.50031253907       0.0196645211765       107.50       0.45189
3.00037504688       0.0219592565563       137.99       0.20697
3.50043755469       0.0244355115626       146.64       1.56253
4.00050006251       0.0270956540585       157.21       0.53646
4.50056257032       0.0299403671021       171.94       1.48188
5.00062507813       0.0329684688994       198.28       4.72885
5.50068758595       0.0361767477366       217.14       0.14527
6.00075009376       0.0395598167853       227.68       1.01357
6.50081260158       0.0431099936701       238.61       1.65265
7.00087510939       0.0468172095621       258.99       2.74962
7.5009376172       0.0506689523018       277.49       60.95718
8.00100012502       0.0546502476789       302.71       71.05930
8.50106263283       0.0587436824859       314.44       1.56994
9.00112514064       0.0629294723431       343.40       5.82580
9.50118764846       0.0671855765663       348.29       1.95627
10.0012501563       0.0714878615354       364.63       0.12843
10.5013126641       0.0758103131392       389.27       0.81562
11.0013751719       0.0801252979382       421.27       0.47305
11.5014376797       0.0844038717362       427.69       0.89936
12.0015001875       0.0886161332897       448.41       2.45057
12.5015626953       0.0927316199592       469.90       4.98098
13.0016252032       0.0967197412179       514.63       2.76337
13.501687711       0.100550245124       525.73       7.74420
14.0017502188       0.104193712143       551.52       2.84918
14.5018127266       0.107622070079       556.22       6.23503
15.0018752344       0.110809123403       576.60       3.93602
15.5019377422       0.113731089845       580.46       10.59482
16.00200025       0.116367136944       600.90       9.69628
16.5020627578       0.118699911046       615.50       2.78684
17.0021252657       0.120716051316       631.74       11.47681
17.5021877735       0.122406681377       651.04       18.32108
18.0022502813       0.123767871393       656.47       42.50781
18.5023127891       0.124801063689       663.86       44.49579
19.0023752969       0.125513455252       702.08       1.48448
19.5024378047       0.125918330829       722.93       11.23586
20.0025003125       0.126035340614       757.00       3.99381
20.5025628204       0.12589071682       772.82       6.82155
21.0026253282       0.125517423692       801.04       5.15414
21.502687836       0.124955235718       819.84       10.15300
22.0027503438       0.124250738903       835.59       37.71311
22.5028128516       0.123457250133       846.59       0.63137
23.0028753594       0.122634649634       858.52       1.02347
23.5029378672       0.121849121626       862.16       36.50871
24.003000375       0.121172798311       884.52       14.26022
24.5030628829       0.120683302467       899.41       6.16265
25.0031253907       0.120463184153       915.77       9.01167
25.5031878985       0.120599247452       920.76       8.53746
26.0032504063       0.121181763849       934.67       9.96465
26.5033129141       0.122303569775       942.53       4.69733
27.0033754219       0.124059047172       969.99       1.34702
27.5034379297       0.126542987676       977.36       0.41690
28.0035004376       0.129849343177       979.63       1.33840
28.5035629454       0.134069868159       994.53       18.06562
29.0036254532       0.139292662376       1023.28       21.64335
29.503687961       0.145600625922       1042.14       45.82254
30.0037504688       0.153069842766       1049.98       20.93130
30.5038129766       0.161767913019       1057.50       23.25425
31.0038754844       0.171752258658       1072.27       27.19563
31.5039379922       0.183068431885       1073.75       22.65960
32.0040005001       0.195748459629       1079.83       21.94417
32.5040630079       0.20980926169       1106.82       18.20515
33.0041255157       0.225251183457       1116.33       36.80103
33.5041880235       0.242056686825       1126.57       7.87672
34.0042505313       0.260189244615       1147.10       12.88709
34.5043130391       0.279592484368       1168.94       7.37668
35.0043755469       0.300189626497       1171.89       0.93823
35.5044380548       0.321883259528       1174.69       3.51893
36.0045005626       0.344555491236       1198.56       39.84664
36.5045630704       0.368068508991       1222.84       33.48726
37.0046255782       0.392265575548       1228.11       15.36754
37.504688086       0.41697247797       1235.76       28.24447
38.0047505938       0.441999437459       1257.28       1.74269
38.5048131016       0.467143476937       1261.71       6.99749
39.0048756095       0.492191231446       1281.41       12.39222
39.5049381173       0.516922174212       1286.25       61.46640
40.0050006251       0.541112218965       1294.30       212.04846
40.5050631329       0.564537647137       1298.14       23.65342
41.0051256407       0.586979297364       1310.59       16.23334
41.5051881485       0.608226944665       1331.39       1.76042
42.0052506563       0.628083788116       1335.97       4.14083
42.5053131641       0.646370959124       1343.98       2.77366
43.005375672       0.662931957763       1352.31       9.46960
43.5054381798       0.677636922289       1352.92       12.57645
44.0055006876       0.690386636904       1362.49       8.30613
44.5055631954       0.701116185231       1376.75       1.98135
45.0056257032       0.709798161572       1381.33       2.14964
45.505688211       0.716445358748       1381.82       2.57743
46.0057507188       0.721112859963       1387.57       8.67972
46.5058132267       0.723899472257       1401.80       10.55510
47.0058757345       0.724948450545       1407.88       5.69636
47.5059382423       0.724447473439       1424.82       3.37858
48.0060007501       0.722627844841       1456.98       15.20675
48.5060632579       0.719762908108       1480.12       5.35284
49.0061257657       0.71616567237       1490.70       2.14954
49.5061882735       0.71218566284       1494.96       7.71692
50.0062507813       0.708205018698       1497.11       6.16740
50.5063132892       0.704633873134       1499.41       15.30783
51.006375797       0.701905060389       1501.42       26.72203
51.5064383048       0.700468204217       1507.37       21.02973
52.0065008126       0.700783251143       1510.57       3.40950
52.5065633204       0.703313520331       1549.59       122.65757
53.0066258282       0.70851835005       1602.96       14.87972
53.506688336       0.716845428651       1634.40       12.97228
54.0067508439       0.728722905842       1663.24       113.37126
54.5068133517       0.744551387961       2209.61       20.56502
55.0068758595       0.764695928751       2996.05       33.28377
55.5069383673       0.789478134936       3006.29       71.37978
56.0070008751       0.819168513271       3018.26       10.60877
56.5070633829       0.853979192517       3030.92       30.40463
57.0071258907       0.894057159506       3045.37       52.99800
57.5071883985       0.939478152607       3051.54       13.70474
58.0072509064       0.990241357898       3061.82       29.86896
58.5073134142       1.04626505267       3061.94       22.63436
59.007375922       1.10738333676       3062.32       29.13402
59.5074384298       1.17334408441       3073.72       22.66205
60.0075009376       1.2438082368       3075.00       18.56740
60.5075634454       1.3183505388       3089.09       29.48168
61.0076259532       1.39646180121       3096.33       46.90478
61.5076884611       1.47755274365       3117.41       20.23037
62.0077509689       1.56095944172       3132.15       23.73295
62.5078134767       1.6459503673       3135.75       24.17394
63.0078759845       1.73173497244       3172.23       20.69474
63.5079384923       1.81747372698       3192.47       2.18784
64.0080010001       1.90228947855       3213.22       9.35849
64.5080635079       1.98527996291       3231.69       2.71618
65.0081260158       2.06553125339       3470.45       83.11496
65.5081885236       2.14213190294       3802.88       33.43151
66.0082510314       2.21418750175
66.5083135392       2.28083534965
67.008376047       2.34125892589
67.5084385548       2.39470183194
68.0085010626       2.44048088454
68.5085635704       2.47799804814
69.0086260783       2.50675091784
69.5086885861       2.52634149467
70.0087510939       2.53648303497
70.5088136017       2.53700480314
71.0088761095       2.5278546098
71.5089386173       2.50909907539
72.0090011251       2.48092161891
72.509063633       2.44361823145
73.0091261408       2.39759115277
73.5091886486       2.3433406233
74.0092511564       2.28145493304
74.5093136642       2.21259902989
75.009376172       2.13750198309
75.5094386798       2.05694362044
76.0095011876       1.97174067091
76.5095636955       1.88273274692
77.0096262033       1.79076849292
77.5096887111       1.69669220964
78.0097512189       1.6013312376
78.5098137267       1.50548435013
79.0098762345       1.40991136704
79.5099387423       1.31532415622
80.0100012502       1.22237914438
80.510063758       1.13167141094
81.0101262658       1.04373039198
81.5101887736       0.959017177451
82.0102512814       0.877923343135
82.5103137892       0.800771223007
83.010376297       0.727815496355
83.5104388049       0.659245939321
84.0105013127       0.595191171876
84.5105638205       0.535723219195
85.0106263283       0.480862700524
85.5106888361       0.430584458707
86.0107513439       0.384823448959
86.5108138517       0.343480715536
87.0108763595       0.306429299003
87.5109388674       0.27351993388
88.0110013752       0.244586415841
88.511063883       0.219450538519
89.0111263908       0.197926521539
89.5111888986       0.179824872973
90.0112514064       0.164955650516
90.5113139142       0.153131105562
91.0113764221       0.14416771291
91.5114389299       0.137887605463
92.0115014377       0.134119447998
92.5115639455       0.1326987966
93.0116264533       0.133468000642
93.5116889611       0.136275712298
94.0117514689       0.140976074408
94.5118139767       0.147427661286
95.0118764846       0.155492248712
95.5119389924       0.165033489142
96.0120015002       0.175915566066
96.512064008       0.188001897753
97.0121265158       0.201153955275
97.5121890236       0.215230253063
98.0122515314       0.230085562329
98.5123140393       0.245570388691
99.0123765471       0.261530745557
99.5124390549       0.277808244306
100.012501563       0.294240511451
100.512564071       0.310661931904
101.012626578       0.32690470653
101.512689086       0.342800201635
102.012751594       0.35818055816
102.512814102       0.372880519442
103.01287661       0.386739428713
103.512939117       0.399603341314
104.013001625       0.411327192041
104.513064133       0.421776955391
105.013126641       0.430831735722
105.513189149       0.438385725636
106.013251656       0.444349974138
106.513314164       0.448653911318
107.013376672       0.451246583141
107.51343918       0.452097558402
108.013501688       0.45119747951
108.513564196       0.448558239316
109.013626703       0.444212777315
109.513689211       0.438214499764
110.013751719       0.430636339313
110.513814227       0.421569480118
111.013876735       0.41112178384
111.513939242       0.399415960111
112.01400175       0.386587531645
112.514064258       0.372782649037
113.014126766       0.35815581333
113.514189274       0.342867565492
114.014251781       0.327082201135
114.514314289       0.310965566178
115.014376797       0.294682984857
115.514439305       0.278397365725
116.014501813       0.26226752435
116.514564321       0.246446753494
117.014626828       0.231081663116
117.514689336       0.216311303641
118.014751844       0.202266577172
118.514814352       0.189069932664
119.01487686       0.176835333041
119.514939367       0.165668474807
120.015001875       0.155667234232
120.515064383       0.146922308674
121.015126891       0.139518017121
121.515189399       0.133533220747
122.015251906       0.129042322005
122.515314414       0.126116299569
123.015376922       0.124823736301
123.51543943       0.125231798062
124.015501938       0.127407122791
124.515564446       0.1314165815
125.015626953       0.137327875779
125.515689461       0.14520993988
126.015751969       0.155133119481
126.515814477       0.167169103702
127.015876985       0.181390591897
127.515939492       0.19787068212
128.016002       0.216681973994
128.516064508       0.237895384964
129.016127016       0.261578685614
129.516189524       0.287794766859
130.016252032       0.316599659269
130.516314539       0.348040332632
131.016377047       0.382152311806
131.516439555       0.418957152961
132.016502063       0.4584598322
132.516564571       0.500646106011
133.016627078       0.545479909841
133.516689586       0.592900866883
134.016752094       0.642821983723
134.516814602       0.695127612279
135.01687711       0.749671758435
135.516939617       0.806276816275
136.017002125       0.864732803012
136.517064633       0.924797163054
137.017127141       0.986195200351
137.517189649       1.04862118611
138.017252157       1.11174017434
138.517314664       1.17519054082
139.017377172       1.23858724233
139.51743968       1.30152577274
140.017502188       1.36358677205
140.517564696       1.42434122319
141.017627203       1.48335615173
141.517689711       1.54020072501
142.017752219       1.59445263087
142.517814727       1.64570460345
143.017877235       1.69357095362
143.517939742       1.73769395699
144.01800225       1.77774995109
144.518064758       1.81345499806
145.018127266       1.8445699772
145.518189774       1.87090498547
146.018252282       1.89232294059
146.518314789       1.90874230221
147.018377297       1.92013884947
147.518439805       1.9265464781
148.018502313       1.92805700537
148.518564821       1.92481899682
149.018627328       1.91703565194
149.518689836       1.90496180824
150.018752344       1.88890014143
150.518814852       1.8691966551
151.01887736       1.84623556393
151.518939867       1.82043368212
152.019002375       1.79223443098
152.519064883       1.76210157901
153.019127391       1.73051282286
153.519189899       1.69795331035
154.019252407       1.66490919663
154.519314914       1.63186131409
155.019377422       1.59927902442
155.51943993       1.56761431046
156.019502438       1.53729615502
156.519564946       1.50872524531
157.019627453       1.4822690352
157.519689961       1.45825719367
158.019752469       1.43697746605
158.519814977       1.41867197547
159.019877485       1.40353399497
159.519939992       1.39170522442
160.0200025       1.38327361202
160.520065008       1.3782717648
161.020127516       1.37667599689
161.520190024       1.3784060674
162.020252532       1.38332565963
162.520315039       1.3912436515
163.020377547       1.40191622076
163.520440055       1.41504981936
164.020502563       1.43030503808
164.520565071       1.44730136603
165.020627578       1.46562282983
165.520690086       1.48482447515
166.020752594       1.50443962978
166.520815102       1.52398786266
167.02087761       1.54298352958
167.520940118       1.56094477376
168.021002625       1.57740282918
168.521065133       1.5919114587
169.021127641       1.60405634619
169.521190149       1.61346425556
170.021252657       1.61981176725
170.521315164       1.62283340733
171.021377672       1.62232899343
171.52144018       1.61817003665
172.021502688       1.61030505797
172.521565196       1.59876370066
173.021627703       1.58365954618
173.521690211       1.56519156903
174.021752719       1.54364419411
174.521815227       1.51938594842
175.021877735       1.49286672499
175.521940243       1.46461370144
176.02200275       1.43522597595
176.522065258       1.40536800118
177.022127766       1.37576190964
177.522190274       1.34717883372
178.022252782       1.32042932954
178.522315289       1.29635301632
179.022377797       1.27580754351
179.522440305       1.25965699671
180.022502813       1.24875985154
180.522565321       1.24395658307
181.022627828       1.24605703833
181.522690336       1.25582768097
182.022752844       1.2739788217
182.522815352       1.30115195533
183.02287786       1.33790733565
183.522940368       1.38471193253
184.023002875       1.44192793091
184.523065383       1.50980194803
185.023127891       1.58845516197
185.523190399       1.67787456013
186.023252907       1.7779055291
186.523315414       1.88824601555
187.023377922       2.00844249008
187.52344043       2.13788794111
188.023502938       2.27582211154
188.523565446       2.42133416777
189.023627953       2.57336795692
189.523690461       2.73072996399
190.023752969       2.89210002752
190.523815477       3.05604480981
191.023877985       3.22103394825
191.523940493       3.38545874006
192.024003       3.54765313542
192.524065508       3.7059167369
193.024128016       3.85853942938
193.524190524       4.00382719708
194.024253032       4.14012862601
194.524315539       4.26586154404
195.024378047       4.37953921936
195.524440555       4.47979552327
196.024503063       4.56540846609
196.524565571       4.63532153724
197.024628079       4.68866232056
197.524690586       4.72475791453
198.024753094       4.74314676154
198.524815602       4.74358657892
199.02487811       4.72605818421
199.524940618       4.69076511457
200.025003125       4.63812905172
200.525065633       4.56878117557
201.025128141       4.48354967717
201.525190649       4.38344376218
202.025253157       4.26963456481
202.525315664       4.14343346734
203.025378172       4.00626837879
203.52544068       3.85965856636
204.025503188       3.70518865443
204.525565696       3.54448240697
205.025628204       3.37917689214
205.525690711       3.2108975921
206.025753219       3.04123497047
206.525815727       2.87172294509
207.025878235       2.70381963901
207.525940743       2.53889070001
208.02600325       2.37819539261
208.526065758       2.2228755791
209.026128266       2.07394762062
209.526190774       1.93229714948
210.026253282       1.79867659095
210.526315789       1.67370524954
211.026378297       1.55787172293
211.526440805       1.45153836603
212.026503313       1.35494750021
212.526565821       1.26822904718
213.026628329       1.19140926311
213.526690836       1.12442025574
214.026753344       1.06710998339
214.526815852       1.01925245916
215.02687836       0.980557913664
215.526940868       0.950682704208
216.027003375       0.929238794764
216.527065883       0.915802668893
217.027128391       0.90992357384
217.527190899       0.91113102833
218.027253407       0.918941557212
218.527315914       0.932864642623
219.027378422       0.952407903149
219.52744093       0.977081529329
220.027503438       1.00640201601
220.527565946       1.03989523967
221.027628454       1.07709893258
221.527690961       1.11756460636
222.027753469       1.16085897557
222.527815977       1.20656492896
223.027878485       1.25428209199
223.527940993       1.3036270209
224.0280035       1.3542330655
224.528066008       1.40574993712
225.028128516       1.45784301798
225.528191024       1.51019245137
226.028253532       1.56249205544
226.52831604       1.61444810992
227.028378547       1.6657780713
227.528441055       1.71620927969
228.028503563       1.76547772721
228.528566071       1.81332696416
229.028628579       1.85950722257
229.528691086       1.90377483881
230.028753594       1.94589205447
230.528816102       1.98562726929
231.02887861       2.02275581001
231.528941118       2.05706126493
232.029003625       2.08833741612
232.529066133       2.11639077921
233.029128641       2.14104373649
233.529191149       2.16213822208
234.029253657       2.1795398904
234.529316165       2.19314267148
235.029378672       2.20287359087
235.52944118       2.20869770841
236.029503688       2.21062301087
