#  x                 y             frequency           intensity
0.0       0.00546181548054       20.73       0.15680
0.500062507813       0.00640973631052       40.83       0.22601
1.00012501563       0.00749286176635       46.84       1.07896
1.50018752344       0.00872488930687       61.97       0.52904
2.00025003125       0.010119919343       77.03       2.17307
2.50031253907       0.0116922856588       118.84       1.61157
3.00037504688       0.0134563539499       136.78       0.26068
3.50043755469       0.0154262885888       150.00       0.49757
4.00050006251       0.0176157887021       158.56       0.04191
4.50056257032       0.0200377957474       191.90       1.48554
5.00062507813       0.0227041759744       200.46       0.55916
5.50068758595       0.025625382428       222.80       1.32171
6.00075009376       0.0288101024549       231.79       1.63592
6.50081260158       0.0322648979708       247.62       1.93783
7.00087510939       0.0359938469891       254.53       4.55583
7.5009376172       0.039998196044       288.53       4.10782
8.00100012502       0.0442760341092       314.87       4.10678
8.50106263283       0.0488219993703       343.91       3.68495
9.00112514064       0.0536270306913       352.49       0.98883
9.50118764846       0.0586781757843       368.47       0.51064
10.0012501563       0.063958467902       393.87       1.56631
10.5013126641       0.0694468822989       421.77       2.50908
11.0013751719       0.0751183827246       446.50       2.06290
11.5014376797       0.0809440668243       450.21       3.36970
12.0015001875       0.086891417533       473.75       1.22798
12.5015626953       0.0929246653904       520.22       1.22858
13.0016252032       0.0990052642186       529.53       2.24960
13.501687711       0.105092479845       546.45       5.04150
14.0017502188       0.111144088603       566.80       10.37461
14.5018127266       0.117117179264       574.87       6.01502
15.0018752344       0.122969048982       578.96       6.89267
15.5019377422       0.128658180801       601.31       2.29253
16.00200025       0.134145287419       622.03       5.19273
16.5020627578       0.139394403366       631.04       52.47726
17.0021252657       0.144374005471       645.53       1.85143
17.5021877735       0.149058139728       659.74       45.99725
18.0022502813       0.153427531355       669.27       5.19720
18.5023127891       0.157470654029       679.24       41.37371
19.0023752969       0.161184734093       713.24       2.93277
19.5024378047       0.164576665801       732.84       11.38295
20.0025003125       0.16766381457       734.83       9.76769
20.5025628204       0.170474686553       783.85       1.75541
21.0026253282       0.173049444646       795.44       3.90678
21.502687836       0.175440253259       811.52       3.39271
22.0027503438       0.177711436657       833.82       11.62699
22.5028128516       0.179939438435       850.78       11.49854
23.0028753594       0.182212572556       856.95       21.45036
23.5029378672       0.184630559357       863.13       2.22617
24.003000375       0.187303842924       883.85       11.54593
24.5030628829       0.190352689178       895.14       33.29021
25.0031253907       0.193906066926       906.74       2.03041
25.5031878985       0.198100316954       918.36       7.17375
26.0032504063       0.203077616975       928.53       2.52444
26.5033129141       0.208984252976       944.93       8.10809
27.0033754219       0.215968710156       973.47       0.59233
27.5034379297       0.224179599389       975.61       3.69365
28.0035004376       0.233763437892       988.54       7.36813
28.5035629454       0.244862305691       991.62       7.62818
29.0036254532       0.257611402499       1019.74       22.50851
29.503687961       0.272136532831       1033.74       13.76579
30.0037504688       0.288551550531       1041.26       18.11000
30.5038129766       0.30695579736       1065.34       45.50351
31.0038754844       0.327431573857       1070.18       55.29305
31.5039379922       0.35004168413       1073.30       13.58506
32.0040005001       0.374827099586       1084.65       0.35963
32.5040630079       0.401804789533       1104.01       57.58863
33.0041255157       0.430965768992       1118.24       21.81250
33.5041880235       0.462273415703       1128.41       6.29942
34.0042505313       0.495662108911       1150.40       10.43221
34.5043130391       0.531036241938       1168.29       4.45230
35.0043755469       0.568269658478       1172.20       0.88361
35.5044380548       0.607205558894       1187.38       5.51302
36.0045005626       0.647656917298       1198.79       56.73230
36.5045630704       0.689407442924       1217.63       75.93388
37.0046255782       0.732213110067       1221.96       13.31630
37.504688086       0.775804269871       1248.41       3.62174
38.0047505938       0.819888344594       1263.64       3.12387
38.5048131016       0.864153090892       1271.33       2.76143
39.0048756095       0.90827040353       1277.44       28.79735
39.5049381173       0.951900615138       1288.04       8.26098
40.0050006251       0.994697231692       1291.92       193.16656
40.5050631329       1.03631202786       1293.45       82.27891
41.0051256407       1.07640041185       1320.50       4.45399
41.5051881485       1.11462695645       1334.61       1.28494
42.0052506563       1.15067098233       1339.32       2.61375
42.5053131641       1.18423207172       1343.25       3.55925
43.005375672       1.21503538606       1355.56       2.00364
43.5054381798       1.24283666015       1358.92       2.75085
44.0055006876       1.26742674852       1367.23       2.58483
44.5055631954       1.28863560693       1374.69       14.93232
45.0056257032       1.30633560287       1388.15       3.88892
45.505688211       1.32044406454       1390.85       3.75541
46.0057507188       1.33092499608       1398.75       13.92869
46.5058132267       1.33778990885       1404.76       7.76479
47.0058757345       1.34109774252       1424.98       20.46859
47.5059382423       1.34095387553       1447.47       92.46118
48.0060007501       1.33750825077       1457.83       17.38938
48.5060632579       1.33095266837       1480.11       6.21718
49.0061257657       1.32151732237       1493.10       1.42641
49.5061882735       1.30946668058       1495.14       7.40714
50.0062507813       1.29509482608       1496.11       22.79266
50.5063132892       1.2787203944       1501.35       5.66522
51.006375797       1.26068125083       1505.10       3.38336
51.5064383048       1.24132905798       1507.08       31.78393
52.0065008126       1.22102388333       1514.64       6.28238
52.5065633204       1.20012899109       1550.11       124.07342
53.0066258282       1.17900595123       1602.47       13.38201
53.506688336       1.15801018259       1634.27       13.10328
54.0067508439       1.13748702575       1664.81       112.07229
54.5068133517       1.11776841716       2215.13       8.67000
55.0068758595       1.09917020862       3007.65       70.44526
55.5069383673       1.0819901471       3023.29       12.83054
56.0070008751       1.06650650076       3024.52       13.40635
56.5070633829       1.05297728828       3034.30       27.96002
57.0071258907       1.04164004198       3039.38       11.92042
57.5071883985       1.03271201214       3048.47       65.34919
58.0072509064       1.02639070063       3056.98       27.17940
58.5073134142       1.02285459823       3063.78       34.70255
59.007375922       1.02226399225       3065.06       12.37875
59.5074384298       1.02476170923       3067.87       45.16917
60.0075009376       1.03047366321       3077.82       30.39628
60.5075634454       1.03950909103       3093.01       46.85629
61.0076259532       1.05196037465       3129.53       6.04629
61.5076884611       1.06790237363       3132.81       23.41107
62.0077509689       1.08739121914       3137.62       27.70892
62.5078134767       1.11046255276       3168.97       1.48324
63.0078759845       1.13712922718       3190.81       2.35095
63.5079384923       1.16737852115       3202.99       4.10128
64.0080010001       1.20116895477       3210.11       3.56647
64.5080635079       1.23842682362       3213.71       8.19189
65.0081260158       1.27904259813       3469.99       56.94143
65.5081885236       1.32286735798       3568.64       206.42678
66.0082510314       1.36970944771
66.5083135392       1.41933154944
67.008376047       1.4714483696
67.5084385548       1.52572512959
68.0085010626       1.58177703455
68.5085635704       1.63916987044
69.0086260783       1.69742184829
69.5086885861       1.75600677632
70.0087510939       1.81435859759
70.5088136017       1.87187728369
71.0088761095       1.92793602633
71.5089386173       1.98188961983
72.0090011251       2.03308388043
72.509063633       2.08086590561
73.0091261408       2.12459493887
73.5091886486       2.1636535752
74.0092511564       2.19745902127
74.5093136642       2.22547411162
75.009376172       2.24721778079
75.5094386798       2.26227469963
76.0095011876       2.27030380263
76.5095636955       2.27104546183
77.0096262033       2.26432709942
77.5096887111       2.25006707546
78.0097512189       2.22827673722
78.5098137267       2.19906056978
79.0098762345       2.16261444346
79.5099387423       2.11922200828
80.0100012502       2.06924933911
80.510063758       2.01313798358
81.0101262658       1.95139660817
81.5101887736       1.88459147362
82.0102512814       1.81333599846
82.5103137892       1.73827968817
83.010376297       1.66009671651
83.5104388049       1.57947444567
84.0105013127       1.49710216275
84.5105638205       1.41366029278
85.0106263283       1.32981032368
85.5106888361       1.2461856485
86.0107513439       1.16338349411
86.5108138517       1.08195806784
87.0108763595       1.00241501293
87.5109388674       0.925207223295
88.0110013752       0.850732029193
88.511063883       0.779329728288
89.0111263908       0.711283403467
89.5111888986       0.646819939616
90.0112514064       0.586112127401
90.5113139142       0.529281723088
91.0113764221       0.476403319823
91.5114389299       0.427508877314
92.0115014377       0.382592753431
92.5115639455       0.341617082214
93.0116264533       0.304517347735
93.5116889611       0.271208011437
94.0117514689       0.241588061397
94.5118139767       0.215546364578
95.0118764846       0.192966717033
95.5119389924       0.173732501456
96.0120015002       0.157730876055
96.512064008       0.144856432836
97.0121265158       0.135014276927
97.5121890236       0.128122491137
98.0122515314       0.124113961597
98.5123140393       0.122937550927
99.0123765471       0.124558615151
99.5124390549       0.128958869534
100.012501563       0.136135617018
100.512564071       0.146100360999
101.012626578       0.158876832276
101.512689086       0.174498468068
102.012751594       0.193005389367
102.512814102       0.214440931556
103.01287661       0.238847792233
103.512939117       0.266263869399
104.013001625       0.29671787249
104.513064133       0.330224797853
105.013126641       0.366781368834
105.513189149       0.406361548276
106.013251656       0.448912237427
106.513314164       0.494349279576
107.013376672       0.542553888607
107.51343918       0.593369621752
108.013501688       0.646600011566
108.513564196       0.702006964403
109.013626703       0.759310021103
109.513689211       0.818186560263
110.013751719       0.878273005374
110.513814227       0.939167074615
111.013876735       1.00043108663
111.513939242       1.06159630774
112.01400175       1.12216829666
112.514064258       1.18163317266
113.014126766       1.23946470329
113.514189274       1.29513207964
114.014251781       1.34810822089
114.514314289       1.39787842788
115.014376797       1.44394918763
115.514439305       1.48585691804
116.014501813       1.52317643621
116.514564321       1.55552893362
117.014626828       1.58258924871
117.514689336       1.60409224127
118.014751844       1.61983809329
118.514814352       1.62969638741
119.01487686       1.63360884549
119.514939367       1.63159064573
120.015001875       1.62373027528
120.515064383       1.61018791587
121.015126891       1.59119240049
121.515189399       1.56703681911
122.015251906       1.53807288792
122.515314414       1.50470423056
123.015376922       1.46737874783
123.51543943       1.42658027493
124.015501938       1.38281974169
124.515564446       1.33662605974
125.015626953       1.28853696292
125.515689461       1.23909002163
126.015751969       1.18881403993
126.515814477       1.13822102603
127.015876985       1.08779890326
127.515939492       1.03800510077
128.016002       0.989261131729
128.516064508       0.941948234107
129.016127016       0.896404114205
129.516189524       0.852920799985
130.016252032       0.811743578445
130.516314539       0.773070961686
131.016377047       0.737055599837
131.516439555       0.703806036782
132.016502063       0.67338918712
132.516564571       0.645833400332
133.016627078       0.621131970965
133.516689586       0.599246951613
134.016752094       0.580113128546
134.516814602       0.563642027399
135.01687711       0.549725828069
135.516939617       0.538241083069
136.017002125       0.529052151413
136.517064633       0.522014279784
137.017127141       0.516976283486
137.517189649       0.513782800653
138.017252157       0.512276113562
138.517314664       0.512297549983
139.017377172       0.513688494581
139.51743968       0.516291054969
140.017502188       0.519948438578
140.517564696       0.524505104885
141.017627203       0.529806762383
141.517689711       0.535700281144
142.017752219       0.542033589876
142.517814727       0.548655621364
143.017877235       0.555416362367
143.517939742       0.562167053942
144.01800225       0.568760576315
144.518064758       0.575052039308
145.018127266       0.58089958574
145.518189774       0.586165401591
146.018252282       0.590716913796
146.518314789       0.59442814477
147.018377297       0.597181182725
147.518439805       0.598867718831
148.018502313       0.599390596681
148.518564821       0.598665316468
149.018627328       0.596621435876
149.518689836       0.593203811842
150.018752344       0.588373631932
150.518814852       0.582109190862
151.01887736       0.574406376217
151.518939867       0.565278837477
152.019002375       0.554757823337
152.519064883       0.54289168378
153.019127391       0.529745044729
153.519189899       0.515397674054
154.019252407       0.499943067734
154.519314914       0.483486793747
155.019377422       0.466144638464
155.51943993       0.448040605761
156.019502438       0.429304822568
156.519564946       0.410071406169
157.019627453       0.390476348227
157.519689961       0.370655468358
158.019752469       0.350742486374
158.519814977       0.330867257168
159.019877485       0.311154206032
159.519939992       0.291720995144
160.0200025       0.272677444478
160.520065008       0.254124722649
161.020127516       0.236154815566
161.520190024       0.218850273431
162.020252532       0.202284229825
162.520315039       0.186520680468
163.020377547       0.171615003928
163.520440055       0.157614702028
164.020502563       0.144560334059
164.520565071       0.132486616117
165.020627578       0.121423654805
165.520690086       0.111398283179
166.020752594       0.102435466014
166.520815102       0.0945597411001
167.02087761       0.0877966633095
167.520940118       0.0821742183631
168.021002625       0.0777241736873
168.521065133       0.0744833342409
169.021127641       0.0724946718124
169.521190149       0.071808297
170.021252657       0.0724822439274
170.521315164       0.0745830388098
171.021377672       0.0781860248457
171.52144018       0.0833754176985
172.021502688       0.0902440681756
172.521565196       0.0988929117366
173.021627703       0.109430088302
173.521690211       0.121969720579
174.021752719       0.136630344869
174.521815227       0.153532995058
175.021877735       0.172798948279
175.521940243       0.194547149411
176.02200275       0.218891341071
176.522065258       0.24593693582
177.022127766       0.275777677717
177.522190274       0.308492150737
178.022252782       0.344140201594
178.522315289       0.382759353725
179.022377797       0.424361297176
179.522440305       0.468928545464
180.022502813       0.516411354663
180.522565321       0.566725001714
181.022627828       0.619747517846
181.522690336       0.675317968838
182.022752844       0.733235366518
182.522815352       0.793258285302
183.02287786       0.855105243912
183.522940368       0.918455895881
184.023002875       0.982953053433
184.523065383       1.04820554836
185.023127891       1.1137919112
185.523190399       1.17926482719
186.023252907       1.24415630452
186.523315414       1.30798346909
187.023377922       1.37025487953
187.52344043       1.43047723958
188.023502938       1.48816237038
188.523565446       1.54283429578
189.023627953       1.59403628756
189.523690461       1.64133771712
190.023752969       1.68434056344
190.523815477       1.72268543615
191.023877985       1.75605698512
191.523940493       1.78418858525
192.024003       1.80686620512
192.524065508       1.82393139115
193.024128016       1.83528332351
193.524190524       1.84087992518
194.024253032       1.8407380309
194.524315539       1.83493264675
195.024378047       1.82359535331
195.524440555       1.80691192468
196.024503063       1.78511925171
196.524565571       1.75850167044
197.024628079       1.72738680447
197.524690586       1.69214103437
198.024753094       1.65316470719
198.524815602       1.61088719501
199.02487811       1.56576190415
199.524940618       1.51826132646
200.025003125       1.4688722114
200.525065633       1.41809092309
201.025128141       1.36641903186
201.525190649       1.31435917392
202.025253157       1.26241119813
202.525315664       1.21106860511
203.025378172       1.1608152714
203.52544068       1.11212244169
204.025503188       1.06544596385
204.525565696       1.02122373676
205.025628204       0.979873337762
205.525690711       0.941789796729
206.025753219       0.907343486028
206.525815727       0.876878099791
207.025878235       0.850708702242
207.525940743       0.829119832274
208.02600325       0.812363659871
208.526065758       0.800658198938
209.026128266       0.79418558989
209.526190774       0.793090473858
210.026253282       0.797478487793
210.526315789       0.807414916069
211.026378297       0.822923538807
211.526440805       0.843985720036
212.026503313       0.870539779665
212.526565821       0.902480692139
213.026628329       0.939660151482
213.526690836       0.98188703748
214.026753344       1.02892831103
214.526815852       1.08051035871
215.02687836       1.13632079744
215.526940868       1.19601074068
216.027003375       1.25919751728
216.527065883       1.32546782504
217.027128391       1.39438129155
217.527190899       1.46547440743
218.027253407       1.53826479011
218.527315914       1.61225573195
219.027378422       1.68694098272
219.52744093       1.7618097157
220.027503438       1.83635162666
220.527565946       1.910062117
221.027628454       1.98244751543
221.527690961       2.0530302966
222.027753469       2.12135425921
222.527815977       2.18698963071
223.027878485       2.24953806907
223.527940993       2.30863753479
224.0280035       2.36396700771
224.528066008       2.41525102222
225.028128516       2.46226399233
225.528191024       2.50483429355
226.028253532       2.54284806208
226.52831604       2.57625266441
227.028378547       2.60505978121
227.528441055       2.62934804022
228.028503563       2.64926512345
228.528566071       2.66502926595
229.028628579       2.67693005628
229.528691086       2.68532844521
230.028753594       2.69065586754
230.528816102       2.69341238522
231.02887861       2.69416376621
231.528941118       2.69353742554
232.029003625       2.69221717044
232.529066133       2.69093671189
233.029128641       2.69047192943
233.529191149       2.6916319037
234.029253657       2.69524876181
234.529316165       2.70216641317
235.029378672       2.71322828647
